x,y
0,-0.033
0,-0.035
0.001,-0.035
0.001,-0.03
0.001,-0.03
0.001,-0.033
0.002,-0.032
0.002,-0.033
0.002,-0.033
0.002,-0.037
0.003,-0.035
0.003,-0.042
0.003,-0.042
0.003,-0.038
0.004,-0.042
0.004,-0.047
0.004,-0.047
0.004,-0.052
0.004,-0.053
0.005,-0.058
0.005,-0.058
0.005,-0.063
0.005,-0.063
0.006,-0.06
0.006,-0.063
0.006,-0.06
0.006,-0.06
0.007,-0.058
0.007,-0.058
0.007,-0.057
0.007,-0.058
0.008,-0.057
0.008,-0.06
0.008,-0.055
0.009,-0.055
0.009,-0.05
0.009,-0.052
0.009,-0.042
0.009,-0.042
0.01,-0.037
0.01,-0.037
0.01,-0.032
0.011,-0.032
0.011,-0.025
0.011,-0.027
0.011,-0.018
0.011,-0.017
0.012,-0.008
0.012,-0.008
0.012,0.005
0.013,0.005
0.013,0.013
0.013,0.015
0.013,0.01
0.013,0.008
0.014,-0.018
0.014,-0.02
0.014,-0.045
0.015,-0.045
0.015,-0.057
0.015,-0.057
0.015,-0.055
0.015,-0.057
0.016,-0.05
0.016,-0.05
0.016,-0.045
0.017,-0.047
0.017,-0.048
0.017,-0.048
0.017,-0.053
0.018,-0.053
0.018,-0.06
0.018,-0.06
0.018,-0.078
0.018,-0.078
0.019,-0.108
0.019,-0.11
0.019,-0.088
0.019,-0.085
0.02,0.01
0.02,0.013
0.02,0.037
0.021,0.032
0.021,0.003
0.021,0.005
0.021,0.002
0.021,0.002
0.022,-0.005
0.022,-0.007
0.022,-0.002
0.022,-0.002
0.023,0.007
0.023,0.007
0.023,0.035
0.024,0.037
0.024,0.07
0.024,0.072
0.024,0.002
0.025,-0.028
0.025,0.265
0.025,0.322
0.025,0.033
0.025,0.302
0.026,-0.182
0.026,-0.197
0.026,-0.378
0.026,-0.382
0.027,-0.277
0.027,-0.27
0.027,-0.083
0.028,-0.077
0.028,0.027
0.028,0.03
0.028,0.062
0.029,0.06
0.029,0.02
0.029,0.018
0.029,-0.018
0.029,-0.02
0.03,-0.032
0.03,-0.03
0.03,-0.02
0.03,-0.018
0.031,-0.003
0.031,-0.003
0.031,0.007
0.032,0.007
0.032,0.015
0.032,0.013
0.032,0.022
0.033,0.022
0.033,0.033
0.033,0.033
0.033,0.052
0.034,0.052
0.034,0.083
0.034,0.085
0.034,0.138
0.035,0.14
0.035,0.195
0.035,0.232
0.035,0.13
0.035,0.113
0.036,-0.048
0.036,-0.018
0.036,0.18
0.036,0.145
0.037,0.105
0.037,0.107
0.037,0.115
0.037,0.108
0.038,0.065
0.038,0.063
0.038,0.002
0.038,0
0.039,-0.047
0.039,-0.048
0.039,-0.078
0.04,-0.08
0.04,-0.098
0.04,-0.098
0.04,-0.105
0.041,-0.103
0.041,-0.105
0.041,-0.105
0.041,-0.098
0.042,-0.1
0.042,-0.092
0.042,-0.093
0.042,-0.082
0.043,-0.08
0.043,-0.072
0.043,-0.072
0.043,-0.06
0.043,-0.058
0.044,-0.05
0.044,-0.05
0.044,-0.042
0.044,-0.042
0.045,-0.037
0.045,-0.038
0.045,-0.033
0.045,-0.033
0.046,-0.028
0.046,-0.033
0.046,-0.03
0.046,-0.03
0.047,-0.025
0.047,-0.025
0.047,-0.017
0.048,-0.017
0.048,-0.008
0.048,-0.008
0.048,0.002
0.049,0.002
0.049,0.003
0.049,0.005
0.049,0.002
0.05,0.003
0.05,0.002
0.05,0
0.05,0.005
0.051,0.003
0.051,0.007
0.051,0.003
0.051,0.007
0.051,0.005
0.052,0.002
0.052,0.003
0.052,0
0.052,0
0.053,-0.003
0.053,-0.005
0.053,-0.003
0.053,-0.007
0.054,-0.003
0.054,-0.003
0.054,-0.007
0.054,-0.007
0.055,-0.008
0.055,-0.007
0.055,-0.008
0.056,-0.008
0.056,-0.01
0.056,-0.008
0.056,-0.005
0.057,-0.005
0.057,0.002
0.057,0.002
0.057,0.008
0.058,0.008
0.058,0.013
0.058,0.013
0.058,0.02
0.059,0.02
0.059,0.023
0.059,0.023
0.059,0.03
0.059,0.028
0.06,0.04
0.06,0.04
0.06,0.05
0.06,0.048
0.061,0.057
0.061,0.057
0.061,0.053
0.061,0.055
0.062,0.048
0.062,0.048
0.062,0.037
0.062,0.037
0.063,0.028
0.063,0.028
0.063,0.025
0.064,0.028
0.064,0.03
0.064,0.028
0.064,0.015
0.065,0.013
0.065,-0.015
0.065,-0.015
0.065,-0.033
0.066,-0.032
0.066,-0.033
0.066,-0.033
0.066,-0.03
0.067,-0.033
0.067,-0.028
0.067,-0.032
0.067,-0.025
0.068,-0.027
0.068,-0.022
0.068,-0.023
0.068,-0.008
0.069,-0.008
0.069,0.005
0.069,0.007
0.069,0.022
0.07,0.022
0.07,0.015
0.07,0.02
0.07,0.003
0.07,0.002
0.071,-0.067
0.071,-0.067
0.071,0.037
0.071,0.038
0.072,-0.072
0.072,-0.048
0.072,0.018
0.072,0.02
0.073,0.042
0.073,0.042
0.073,0.05
0.073,0.052
0.074,0.057
0.074,0.055
0.074,0.043
0.074,0.042
0.075,0.028
0.075,0.027
0.075,0.015
0.075,0.015
0.076,0.005
0.076,0.007
0.076,0.003
0.076,0.003
0.077,0.007
0.077,0.007
0.077,0.012
0.077,0.01
0.078,0.002
0.078,0.002
0.078,-0.01
0.079,-0.01
0.079,-0.03
0.079,-0.03
0.079,-0.043
0.08,-0.043
0.08,-0.04
0.08,-0.04
0.08,-0.028
0.081,-0.027
0.081,-0.013
0.081,-0.013
0.081,0.002
0.082,0.003
0.082,0.02
0.082,0.02
0.082,0.037
0.083,0.037
0.083,0.04
0.083,0.037
0.083,0.032
0.084,0.032
0.084,0.023
0.084,0.023
0.084,0.017
0.085,0.017
0.085,0.013
0.085,0.013
0.085,0.01
0.086,0.012
0.086,0.008
0.086,0.008
0.086,0.01
0.086,0.008
0.087,0.017
0.087,0.015
0.087,0.02
0.087,0.02
0.088,0.025
0.088,0.025
0.088,0.027
0.088,0.028
0.089,0.032
0.089,0.03
0.089,0.032
0.089,0.028
0.09,0.033
0.09,0.032
0.09,0.037
0.09,0.037
0.091,0.042
0.091,0.042
0.091,0.045
0.091,0.043
0.092,0.038
0.092,0.04
0.092,0.032
0.092,0.032
0.093,0.02
0.093,0.02
0.093,0.007
0.093,0.007
0.094,-0.003
0.094,-0.003
0.094,-0.01
0.095,-0.008
0.095,-0.005
0.095,-0.008
0.095,-0.003
0.096,-0.005
0.096,-0.002
0.096,-0.007
0.096,-0.005
0.097,-0.007
0.097,-0.008
0.097,-0.008
0.097,-0.01
0.098,-0.01
0.098,-0.008
0.098,-0.008
0.098,-0.005
0.099,-0.005
0.099,-0.007
0.099,-0.007
0.099,-0.003
0.1,-0.005
0.1,-0.01
0.1,-0.008
0.1,-0.012
0.101,-0.013
0.101,-0.03
0.101,-0.03
0.101,-0.037
0.102,-0.037
0.102,-0.035
0.102,-0.033
0.102,-0.03
0.102,-0.03
0.103,-0.022
0.103,-0.022
0.103,-0.017
0.103,-0.017
0.104,-0.013
0.104,-0.012
0.104,0.002
0.104,0.002
0.105,0.008
0.105,0.007
0.105,-0.002
0.105,-0.002
0.106,-0.058
0.106,-0.062
0.106,-0.147
0.106,-0.15
0.107,-0.118
0.107,-0.113
0.107,-0.005
0.107,0
0.108,0.08
0.108,0.082
0.108,0.09
0.108,0.08
0.109,0.047
0.109,0.047
0.109,0.03
0.11,0.03
0.11,0.023
0.11,0.025
0.11,0.022
0.111,0.02
0.111,0.028
0.111,0.028
0.111,0.033
0.112,0.032
0.112,0.037
0.112,0.037
0.112,0.055
0.113,0.07
0.113,0.052
0.113,0.002
0.113,0.153
0.114,0.263
0.114,-0.025
0.114,0.218
0.114,-0.195
0.115,-0.212
0.115,-0.267
0.115,-0.265
0.115,-0.117
0.116,-0.113
0.116,-0.065
0.116,-0.063
0.116,-0.048
0.117,-0.048
0.117,-0.038
0.117,-0.038
0.117,-0.045
0.117,-0.045
0.118,-0.04
0.118,-0.045
0.118,-0.047
0.118,-0.045
0.119,-0.038
0.119,-0.038
0.119,-0.028
0.119,-0.03
0.12,-0.023
0.12,-0.023
0.12,-0.02
0.12,-0.02
0.121,-0.017
0.121,-0.018
0.121,-0.022
0.121,-0.022
0.122,-0.018
0.122,-0.018
0.122,-0.01
0.122,-0.008
0.123,-0.003
0.123,-0.002
0.123,0.008
0.123,0.008
0.124,0.022
0.124,0.022
0.124,0.027
0.124,0.027
0.125,0.013
0.125,0.013
0.125,-0.017
0.126,-0.018
0.126,-0.048
0.126,-0.048
0.126,-0.065
0.127,-0.067
0.127,-0.062
0.127,-0.06
0.127,-0.047
0.128,-0.047
0.128,-0.04
0.128,-0.04
0.128,-0.038
0.129,-0.04
0.129,-0.045
0.129,-0.043
0.129,-0.047
0.13,-0.047
0.13,-0.043
0.13,-0.042
0.13,-0.037
0.131,-0.037
0.131,-0.03
0.131,-0.03
0.131,-0.027
0.132,-0.027
0.132,-0.02
0.132,-0.02
0.132,-0.015
0.133,-0.017
0.133,-0.012
0.133,-0.012
0.133,-0.017
0.134,-0.017
0.134,-0.018
0.134,-0.017
0.134,-0.027
0.135,-0.027
0.135,-0.033
0.135,-0.033
0.135,-0.04
0.136,-0.04
0.136,-0.045
0.136,-0.043
0.136,-0.047
0.137,-0.047
0.137,-0.05
0.137,-0.05
0.137,-0.047
0.138,-0.047
0.138,-0.038
0.138,-0.038
0.138,-0.028
0.139,-0.028
0.139,-0.023
0.139,-0.023
0.139,-0.027
0.14,-0.023
0.14,-0.022
0.14,-0.023
0.14,-0.02
0.141,-0.022
0.141,-0.018
0.141,-0.018
0.141,-0.017
0.141,-0.018
0.142,-0.022
0.142,-0.022
0.142,-0.028
0.142,-0.025
0.143,-0.015
0.143,-0.013
0.143,-0.007
0.143,-0.005
0.144,0
0.144,0
0.144,0.007
0.144,0.007
0.145,0.018
0.145,0.017
0.145,0.032
0.145,0.033
0.146,0.052
0.146,0.053
0.146,0.082
0.146,0.083
0.147,0.128
0.147,0.132
0.147,0.175
0.147,0.195
0.148,0.063
0.148,0.05
0.148,-0.04
0.148,0.037
0.149,0.083
0.149,0.08
0.149,0.123
0.149,0.125
0.15,0.142
0.15,0.135
0.15,0.083
0.15,0.08
0.151,0.005
0.151,0.003
0.151,-0.052
0.151,-0.052
0.152,-0.08
0.152,-0.08
0.152,-0.1
0.152,-0.1
0.153,-0.107
0.153,-0.107
0.153,-0.11
0.153,-0.108
0.154,-0.102
0.154,-0.102
0.154,-0.095
0.154,-0.095
0.155,-0.083
0.155,-0.083
0.155,-0.073
0.155,-0.073
0.156,-0.058
0.156,-0.057
0.156,-0.033
0.157,-0.032
0.157,-0.017
0.157,-0.017
0.157,-0.025
0.158,-0.025
0.158,-0.033
0.158,-0.033
0.158,-0.038
0.159,-0.038
0.159,-0.043
0.159,-0.043
0.159,-0.038
0.16,-0.038
0.16,-0.038
0.16,-0.035
0.16,-0.037
0.161,-0.03
0.161,-0.03
0.161,-0.023
0.161,-0.025
0.162,-0.02
0.162,-0.02
0.162,-0.015
0.162,-0.015
0.163,-0.008
0.163,-0.01
0.163,-0.005
0.163,-0.007
0.164,-0.003
0.164,-0.005
0.164,-0.003
0.164,-0.005
0.165,-0.01
0.165,-0.007
0.165,-0.01
0.165,-0.007
0.166,-0.002
0.166,-0.003
0.166,0.002
0.166,0.002
0.167,0
0.167,0.002
0.167,0.008
0.167,0.008
0.168,0.015
0.168,0.015
0.168,0.02
0.168,0.02
0.169,0.03
0.169,0.03
0.169,0.038
0.169,0.038
0.17,0.048
0.17,0.05
0.17,0.065
0.17,0.067
0.171,0.122
0.171,0.148
0.171,-0.035
0.171,-0.057
0.172,-0.04
0.172,-0.038
0.172,-0.008
0.172,-0.007
0.172,0.007
0.173,0.007
0.173,0.012
0.173,0.01
0.173,0.012
0.174,0.012
0.174,0.007
0.174,0.007
0.174,0.01
0.175,0.01
0.175,0.017
0.175,0.018
0.175,0.022
0.176,0.022
0.176,0.018
0.176,0.023
0.176,0.027
0.177,0.025
0.177,0.028
0.177,0.027
0.177,0.03
0.178,0.03
0.178,0.038
0.178,0.038
0.178,0.05
0.179,0.05
0.179,0.058
0.179,0.06
0.179,0.063
0.18,0.062
0.18,0.057
0.18,0.058
0.18,0.053
0.181,0.055
0.181,0.047
0.181,0.047
0.181,0.043
0.182,0.045
0.182,0.037
0.182,0.037
0.182,0.032
0.183,0.03
0.183,0.022
0.183,0.022
0.183,0.028
0.184,0.028
0.184,0.032
0.184,0.03
0.184,0.033
0.185,0.03
0.185,0.033
0.185,0.033
0.185,0.038
0.186,0.038
0.186,0.047
0.186,0.047
0.186,0.053
0.187,0.055
0.187,0.063
0.187,0.065
0.188,0.078
0.188,0.08
0.188,0.075
0.188,0.077
0.189,0.085
0.189,0.085
0.189,0.075
0.189,0.073
0.19,0.055
0.19,0.055
0.19,0.032
0.19,0.03
0.191,0.017
0.191,0.015
0.191,-0.063
0.191,-0.078
0.192,-0.057
0.192,-0.055
0.192,-0.03
0.192,-0.03
0.193,0.013
0.193,0.015
0.193,0.08
0.193,0.08
0.194,0.097
0.194,0.098
0.194,0.08
0.194,0.078
0.195,0.045
0.195,0.043
0.195,0.025
0.195,0.023
0.196,0.017
0.196,0.017
0.196,0.013
0.196,0.015
0.197,0
0.197,-0.002
0.197,-0.018
0.197,-0.023
0.198,-0.002
0.198,0.002
0.198,0.097
0.198,0.1
0.199,0.15
0.199,0.152
0.199,0.168
0.199,0.167
0.2,0.097
0.2,0.352
0.2,0.072
0.2,0.067
0.201,0.335
0.201,0.137
0.201,-0.148
0.201,-0.205
0.202,-0.148
0.202,-0.145
0.202,-0.07
0.202,-0.067
0.203,-0.03
0.203,-0.028
0.203,-0.013
0.203,-0.013
0.203,-0.002
0.204,-0.002
0.204,0.007
0.204,0.007
0.204,0.003
0.205,0.005
0.205,-0.005
0.205,-0.007
0.205,-0.015
0.206,-0.015
0.206,-0.008
0.206,-0.01
0.206,-0.005
0.207,-0.005
0.207,-0.003
0.207,-0.003
0.207,-0.007
0.208,-0.007
0.208,-0.018
0.208,-0.02
0.208,-0.045
0.209,-0.045
0.209,-0.062
0.209,-0.062
0.209,-0.068
0.21,-0.068
0.21,-0.072
0.21,-0.07
0.21,-0.073
0.211,-0.073
0.211,-0.087
0.211,-0.087
0.211,-0.095
0.212,-0.095
0.212,-0.102
0.212,-0.102
0.212,-0.107
0.213,-0.107
0.213,-0.11
0.213,-0.108
0.213,-0.112
0.214,-0.113
0.214,-0.11
0.214,-0.108
0.214,-0.098
0.215,-0.097
0.215,-0.085
0.215,-0.085
0.215,-0.092
0.216,-0.092
0.216,-0.103
0.216,-0.103
0.216,-0.123
0.217,-0.125
0.217,-0.138
0.217,-0.138
0.217,-0.145
0.218,-0.143
0.218,-0.15
0.218,-0.15
0.218,-0.167
0.219,-0.168
0.219,-0.198
0.219,-0.2
0.22,-0.233
0.22,-0.233
0.22,-0.258
0.22,-0.26
0.221,-0.272
0.221,-0.273
0.221,-0.27
0.221,-0.272
0.222,-0.267
0.222,-0.27
0.222,-0.267
0.222,-0.267
0.223,-0.263
0.223,-0.265
0.223,-0.268
0.223,-0.268
0.224,-0.262
0.224,-0.262
0.224,-0.255
0.224,-0.257
0.225,-0.247
0.225,-0.248
0.225,-0.243
0.225,-0.243
0.226,-0.235
0.226,-0.235
0.226,-0.225
0.226,-0.225
0.227,-0.208
0.227,-0.208
0.227,-0.195
0.227,-0.193
0.228,-0.17
0.228,-0.168
0.228,-0.137
0.228,-0.137
0.229,-0.098
0.229,-0.098
0.229,-0.053
0.229,-0.052
0.23,-0.013
0.23,-0.013
0.23,0.007
0.23,0.007
0.231,0.013
0.231,0.013
0.231,0.022
0.231,0.018
0.232,0.023
0.232,0.023
0.232,0.028
0.232,0.028
0.233,0.035
0.233,0.033
0.233,0.042
0.233,0.042
0.234,0.048
0.234,0.048
0.234,0.053
0.234,0.053
0.234,0.058
0.235,0.058
0.235,0.068
0.235,0.068
0.235,0.073
0.236,0.073
0.236,0.078
0.236,0.08
0.236,0.087
0.237,0.087
0.237,0.092
0.237,0.092
0.237,0.093
0.238,0.092
0.238,0.093
0.238,0.092
0.238,0.097
0.239,0.097
0.239,0.105
0.239,0.105
0.239,0.115
0.24,0.113
0.24,0.128
0.24,0.128
0.24,0.142
0.241,0.142
0.241,0.152
0.241,0.152
0.241,0.158
0.242,0.158
0.242,0.163
0.242,0.165
0.242,0.16
0.243,0.158
0.243,0.165
0.243,0.165
0.243,0.17
0.244,0.17
0.244,0.175
0.244,0.177
0.244,0.185
0.245,0.185
0.245,0.19
0.245,0.188
0.245,0.197
0.246,0.197
0.246,0.215
0.246,0.217
0.246,0.237
0.247,0.238
0.247,0.272
0.247,0.273
0.247,0.34
0.248,0.34
0.248,0.385
0.248,0.367
0.248,0.087
0.249,0.077
0.249,0.117
0.249,0.09
0.249,0.17
0.25,0.1
0.25,0.175
0.25,0.255
0.251,0.257
0.251,0.267
0.251,0.263
0.251,0.225
0.252,0.222
0.252,0.178
0.252,0.178
0.252,0.152
0.253,0.152
0.253,0.142
0.253,0.14
0.253,0.133
0.254,0.135
0.254,0.13
0.254,0.13
0.254,0.127
0.255,0.127
0.255,0.122
0.255,0.123
0.255,0.12
0.256,0.12
0.256,0.122
0.256,0.123
0.256,0.12
0.257,0.122
0.257,0.117
0.257,0.118
0.257,0.12
0.258,0.118
0.258,0.12
0.258,0.12
0.258,0.117
0.259,0.117
0.259,0.112
0.259,0.112
0.259,0.108
0.26,0.108
0.26,0.103
0.26,0.105
0.26,0.102
0.261,0.105
0.261,0.113
0.261,0.113
0.261,0.123
0.262,0.123
0.262,0.132
0.262,0.132
0.262,0.133
0.263,0.133
0.263,0.137
0.263,0.135
0.263,0.133
0.264,0.135
0.264,0.132
0.264,0.133
0.264,0.123
0.265,0.123
0.265,0.115
0.265,0.115
0.265,0.097
0.266,0.097
0.266,0.087
0.266,0.085
0.266,0.077
0.267,0.077
0.267,0.072
0.267,0.073
0.267,0.075
0.268,0.075
0.268,0.08
0.268,0.08
0.268,0.083
0.269,0.083
0.269,0.082
0.269,0.082
0.269,0.078
0.27,0.08
0.27,0.075
0.27,0.075
0.27,0.072
0.271,0.072
0.271,0.067
0.271,0.067
0.271,0.07
0.272,0.065
0.272,0.063
0.272,0.063
0.272,0.062
0.273,0.062
0.273,0.065
0.273,0.065
0.273,0.06
0.274,0.06
0.274,0.052
0.274,0.053
0.274,0.048
0.275,0.048
0.275,0.047
0.275,0.05
0.275,0.047
0.276,0.048
0.276,0.045
0.276,0.048
0.276,0.043
0.277,0.045
0.277,0.04
0.277,0.042
0.277,0.038
0.278,0.038
0.278,0.042
0.278,0.04
0.278,0.045
0.279,0.047
0.279,0.053
0.279,0.053
0.279,0.077
0.28,0.078
0.28,0.143
0.28,0.145
0.28,-0.028
0.281,-0.025
0.281,0.012
0.281,0.013
0.281,0.033
0.281,0.035
0.282,0.038
0.282,0.038
0.282,0.028
0.282,0.027
0.283,0.023
0.283,0.022
0.283,0.027
0.283,0.027
0.284,0.032
0.284,0.032
0.284,0.033
0.284,0.033
0.285,0.028
0.285,0.03
0.285,0.027
0.285,0.027
0.286,0.018
0.286,0.018
0.286,0.008
0.286,0.008
0.287,-0.002
0.287,-0.002
0.287,-0.042
0.287,-0.045
0.288,-0.123
0.288,-0.127
0.288,-0.142
0.288,-0.135
0.289,-0.028
0.289,-0.025
0.289,0.057
0.289,0.058
0.29,0.078
0.29,0.075
0.29,0.045
0.29,0.045
0.291,0.022
0.291,0.02
0.291,0.01
0.291,0.01
0.292,0.005
0.292,0.005
0.292,0.007
0.292,0.008
0.293,0.013
0.293,0.015
0.293,0.018
0.293,0.017
0.294,0.02
0.294,0.02
0.294,0.025
0.294,0.025
0.295,0.018
0.295,0.017
0.295,0.007
0.295,0.005
0.296,-0.003
0.296,-0.003
0.296,0.002
0.296,0.002
0.297,0.013
0.297,0.013
0.297,0.02
0.297,0.02
0.298,0.037
0.298,0.037
0.298,0.065
0.298,0.067
0.299,0.09
0.299,0.08
0.299,0.017
0.299,0.03
0.3,0.218
0.3,0.013
0.3,0.227
0.3,0.202
0.301,-0.175
0.301,-0.182
0.301,-0.258
0.301,-0.223
0.302,-0.1
0.302,-0.095
0.302,-0.043
0.302,-0.042
0.303,-0.05
0.303,-0.053
0.303,-0.042
0.303,-0.042
0.304,-0.028
0.304,-0.028
0.304,-0.035
0.304,-0.032
0.305,-0.038
0.305,-0.038
0.305,-0.033
0.305,-0.033
0.306,-0.025
0.306,-0.023
0.306,-0.022
0.306,-0.022
0.307,-0.033
0.307,-0.033
0.307,-0.028
0.307,-0.027
0.308,-0.022
0.308,-0.025
0.308,-0.018
0.308,-0.022
0.309,-0.027
0.309,-0.022
0.309,-0.032
0.309,-0.033
0.31,-0.102
0.31,-0.12
0.31,-0.08
0.31,-0.077
0.311,0.02
0.311,0.022
0.311,0.048
0.311,0.047
0.312,0.013
0.312,0.012
0.312,-0.015
0.312,-0.015
0.313,-0.032
0.313,-0.032
0.313,-0.04
0.314,-0.04
0.314,-0.047
0.314,-0.045
0.314,-0.047
0.315,-0.045
0.315,-0.037
0.315,-0.037
0.315,-0.027
0.316,-0.027
0.316,-0.015
0.316,-0.015
0.316,-0.007
0.317,-0.007
0.317,-0.002
0.317,-0.003
0.317,0.002
0.318,-0.003
0.318,-0.01
0.318,-0.012
0.318,-0.018
0.319,-0.018
0.319,-0.023
0.319,-0.023
0.319,-0.025
0.32,-0.025
0.32,-0.032
0.32,-0.032
0.32,-0.04
0.321,-0.04
0.321,-0.043
0.321,-0.042
0.321,-0.037
0.322,-0.038
0.322,-0.028
0.322,-0.027
0.322,-0.018
0.323,-0.018
0.323,-0.012
0.323,-0.01
0.323,-0.015
0.324,-0.017
0.324,-0.035
0.324,-0.037
0.324,-0.057
0.325,-0.057
0.325,-0.067
0.325,-0.068
0.325,-0.06
0.326,-0.058
0.326,-0.047
0.326,-0.048
0.326,-0.042
0.327,-0.043
0.327,-0.042
0.327,-0.043
0.327,-0.033
0.328,-0.033
0.328,-0.022
0.328,-0.022
0.328,-0.01
0.329,-0.008
0.329,-0.013
0.329,-0.013
0.329,-0.017
0.33,-0.017
0.33,-0.03
0.33,-0.032
0.33,-0.035
0.331,-0.033
0.331,-0.03
0.331,-0.028
0.331,-0.025
0.332,-0.025
0.332,-0.03
0.332,-0.027
0.332,-0.038
0.333,-0.037
0.333,-0.047
0.333,-0.047
0.333,-0.052
0.334,-0.05
0.334,-0.053
0.334,-0.052
0.334,-0.043
0.335,-0.043
0.335,-0.035
0.335,-0.035
0.335,-0.028
0.336,-0.028
0.336,-0.025
0.336,-0.027
0.336,-0.03
0.337,-0.03
0.337,-0.027
0.337,-0.028
0.337,-0.028
0.338,-0.028
0.338,-0.033
0.338,-0.03
0.338,-0.033
0.339,-0.033
0.339,-0.038
0.339,-0.038
0.339,-0.043
0.34,-0.042
0.34,-0.045
0.34,-0.043
0.34,-0.04
0.341,-0.04
0.341,-0.037
0.341,-0.035
0.341,-0.038
0.342,-0.038
0.342,-0.043
0.342,-0.043
0.342,-0.05
0.343,-0.048
0.343,-0.058
0.343,-0.058
0.343,-0.065
0.344,-0.065
0.344,-0.068
0.344,-0.068
0.344,-0.063
0.344,-0.063
0.345,-0.057
0.345,-0.057
0.345,-0.055
0.345,-0.055
0.346,-0.057
0.346,-0.057
0.346,-0.055
0.346,-0.055
0.347,-0.058
0.347,-0.058
0.347,-0.058
0.347,-0.057
0.348,-0.06
0.348,-0.058
0.348,-0.06
0.348,-0.058
0.349,-0.062
0.349,-0.058
0.349,-0.06
0.349,-0.058
0.35,-0.057
0.35,-0.058
0.35,-0.062
0.35,-0.06
0.351,-0.052
0.351,-0.05
0.351,-0.038
0.351,-0.038
0.352,-0.027
0.352,-0.027
0.352,-0.02
0.352,-0.018
0.353,-0.008
0.353,-0.008
0.353,0.003
0.353,0.003
0.354,0.015
0.354,0.015
0.354,0.032
0.354,0.033
0.355,0.068
0.355,0.072
0.355,0.122
0.355,0.152
0.356,0.042
0.356,0.027
0.356,-0.128
0.356,-0.07
0.357,-0.107
0.357,-0.085
0.357,0.002
0.357,0.005
0.358,0.057
0.358,0.057
0.358,0.03
0.358,0.028
0.359,-0.02
0.359,-0.022
0.359,-0.09
0.359,-0.095
0.36,-0.197
0.36,-0.2
0.36,-0.237
0.36,-0.233
0.361,-0.133
0.361,-0.128
0.361,-0.04
0.361,-0.037
0.362,0.02
0.362,0.022
0.362,0.047
0.362,0.05
0.363,-0.152
0.363,-0.155
0.363,-0.13
0.363,-0.128
0.364,-0.093
0.364,-0.092
0.364,-0.07
0.364,-0.068
0.365,-0.058
0.365,-0.057
0.365,-0.048
0.365,-0.048
0.366,-0.035
0.366,-0.033
0.366,-0.018
0.366,-0.018
0.367,-0.007
0.367,-0.007
0.367,-0.002
0.367,-0.007
0.368,-0.013
0.368,-0.013
0.368,-0.02
0.368,-0.02
0.369,-0.03
0.369,-0.03
0.369,-0.037
0.369,-0.037
0.37,-0.04
0.37,-0.043
0.37,-0.037
0.37,-0.037
0.371,-0.03
0.371,-0.032
0.371,-0.027
0.371,-0.028
0.372,-0.025
0.372,-0.027
0.372,-0.023
0.372,-0.025
0.373,-0.023
0.373,-0.023
0.373,-0.02
0.373,-0.018
0.374,-0.012
0.374,-0.01
0.374,-0.017
0.374,-0.018
0.375,-0.06
0.375,-0.062
0.375,-0.102
0.376,-0.103
0.376,-0.05
0.376,-0.047
0.376,0.013
0.377,0.02
0.377,0.013
0.377,0.008
0.377,0.015
0.378,0.017
0.378,0.028
0.378,0.03
0.378,0.05
0.379,0.05
0.379,0.07
0.379,0.03
0.379,0.13
0.38,0.187
0.38,-0.04
0.38,0.207
0.38,-0.075
0.381,-0.1
0.381,-0.167
0.381,-0.182
0.381,-0.1
0.382,-0.097
0.382,-0.042
0.382,-0.04
0.382,-0.032
0.383,-0.03
0.383,-0.023
0.383,-0.023
0.383,-0.008
0.384,-0.007
0.384,0.007
0.384,0.008
0.384,0.012
0.385,0.012
0.385,0.018
0.385,0.02
0.385,0.015
0.386,0.015
0.386,0.008
0.386,0.01
0.386,0.005
0.387,0.007
0.387,0.002
0.387,0.002
0.387,-0.017
0.388,-0.017
0.388,-0.033
0.388,-0.033
0.388,-0.038
0.389,-0.035
0.389,-0.038
0.389,-0.037
0.389,-0.033
0.39,-0.035
0.39,-0.028
0.39,-0.028
0.39,-0.022
0.391,-0.023
0.391,-0.018
0.391,-0.018
0.391,-0.013
0.392,-0.015
0.392,-0.01
0.392,-0.008
0.392,-0.012
0.393,-0.01
0.393,-0.007
0.393,-0.007
0.393,-0.01
0.394,-0.007
0.394,-0.008
0.394,-0.007
0.394,-0.008
0.395,-0.008
0.395,-0.017
0.395,-0.017
0.395,-0.023
0.396,-0.025
0.396,-0.032
0.396,-0.03
0.396,-0.028
0.397,-0.03
0.397,-0.033
0.397,-0.033
0.397,-0.028
0.398,-0.03
0.398,-0.025
0.398,-0.025
0.398,-0.027
0.399,-0.025
0.399,-0.028
0.399,-0.025
0.399,-0.028
0.4,-0.028
0.4,-0.032
0.4,-0.032
0.4,-0.027
0.401,-0.027
0.401,-0.017
0.401,-0.017
0.401,-0.005
0.402,-0.005
0.402,0.007
0.402,0.007
0.402,0.022
0.403,0.023
0.403,0.035
0.403,0.035
0.403,0.028
0.404,0.027
0.404,0.02
0.404,0.022
0.404,0.017
0.405,0.017
0.405,0.012
0.405,0.01
0.405,0.007
0.406,0.008
0.406,0.012
0.406,0.01
0.406,0.008
0.406,0.008
0.407,0.005
0.407,0.005
0.407,0.008
0.407,0.008
0.408,0.007
0.408,0.007
0.408,0.003
0.408,0.005
0.409,0.003
0.409,0.003
0.409,-0.002
0.409,-0.002
0.41,0.002
0.41,0
0.41,-0.002
0.41,0.002
0.411,-0.002
0.411,0
0.411,-0.003
0.411,-0.002
0.412,-0.005
0.412,-0.005
0.412,-0.008
0.412,-0.008
0.413,-0.01
0.413,-0.01
0.413,-0.012
0.413,-0.012
0.414,-0.013
0.414,-0.013
0.414,-0.008
0.414,-0.008
0.415,-0.005
0.415,-0.005
0.415,-0.008
0.415,-0.008
0.416,-0.005
0.416,-0.005
0.416,-0.003
0.416,-0.003
0.417,0
0.417,0
0.417,0.002
0.417,0.002
0.418,0.005
0.418,0.005
0.418,0.007
0.418,0.007
0.419,0.005
0.419,0.005
0.419,0
0.419,-0.002
0.42,0.002
0.42,0
0.42,-0.003
0.42,-0.003
0.421,-0.005
0.421,-0.007
0.421,-0.003
0.421,-0.003
0.422,0.003
0.422,0.002
0.422,0.005
0.422,0.003
0.423,-0.002
0.423,-0.002
0.423,-0.01
0.423,-0.01
0.424,-0.013
0.424,-0.013
0.424,-0.018
0.424,-0.02
0.425,-0.017
0.425,-0.017
0.425,-0.008
0.425,-0.01
0.426,-0.005
0.426,-0.007
0.426,-0.002
0.426,-0.005
0.427,-0.013
0.427,-0.013
0.427,-0.03
0.427,-0.03
0.428,-0.033
0.428,-0.032
0.428,-0.035
0.428,-0.032
0.429,-0.025
0.429,-0.025
0.429,-0.022
0.429,-0.023
0.43,-0.013
0.43,-0.012
0.43,-0.035
0.43,-0.037
0.431,-0.127
0.431,-0.127
0.431,-0.06
0.431,-0.057
0.432,0.032
0.432,0.035
0.432,0.078
0.432,0.082
0.433,0.07
0.433,0.068
0.433,0.043
0.433,0.042
0.434,0.023
0.434,0.022
0.434,0.012
0.434,0.012
0.435,0.015
0.435,0.013
0.435,0.017
0.435,0.017
0.436,0.017
0.436,0.017
0.436,0.013
0.436,0.012
0.437,0
0.437,0
0.437,-0.008
0.438,-0.008
0.438,-0.01
0.438,-0.008
0.438,-0.003
0.439,-0.003
0.439,0.002
0.439,0.002
0.439,0.003
0.44,0.002
0.44,-0.01
0.44,-0.01
0.44,-0.022
0.441,-0.022
0.441,-0.027
0.441,-0.027
0.441,-0.032
0.442,-0.032
0.442,-0.028
0.442,-0.032
0.442,-0.03
0.443,-0.032
0.443,-0.028
0.443,-0.03
0.443,-0.027
0.444,-0.028
0.444,-0.035
0.444,-0.032
0.444,-0.035
0.445,-0.033
0.445,-0.027
0.445,-0.027
0.445,-0.025
0.446,-0.025
0.446,-0.028
0.446,-0.03
0.446,-0.027
0.447,-0.03
0.447,-0.027
0.447,-0.028
0.447,-0.02
0.448,-0.022
0.448,-0.018
0.448,-0.02
0.448,-0.027
0.449,-0.027
0.449,-0.073
0.449,-0.077
0.449,-0.153
0.45,-0.157
0.45,-0.133
0.45,-0.128
0.45,-0.032
0.451,-0.028
0.451,0.045
0.451,0.047
0.451,0.057
0.452,0.047
0.452,0.013
0.452,0.012
0.452,-0.012
0.453,-0.013
0.453,-0.022
0.453,-0.022
0.453,-0.025
0.454,-0.023
0.454,-0.027
0.454,-0.027
0.454,-0.032
0.455,-0.032
0.455,-0.035
0.455,-0.033
0.455,-0.03
0.456,-0.03
0.456,-0.025
0.456,-0.025
0.456,-0.023
0.457,-0.022
0.457,-0.025
0.457,-0.023
0.457,-0.025
0.458,-0.025
0.458,-0.023
0.458,-0.023
0.458,-0.027
0.459,-0.025
0.459,-0.02
0.459,-0.02
0.459,-0.017
0.46,-0.017
0.46,0.002
0.46,0.003
0.46,0.052
0.461,0.057
0.461,-0.115
0.461,-0.115
0.461,-0.075
0.462,-0.073
0.462,-0.037
0.462,-0.035
0.462,-0.015
0.463,-0.017
0.463,-0.012
0.463,-0.012
0.463,0.008
0.464,0.01
0.464,0.03
0.464,0.03
0.464,0.042
0.465,0.043
0.465,0.037
0.465,0.033
0.465,0.063
0.466,0.067
0.466,0.165
0.466,0.165
0.466,-0.008
0.467,-0.013
0.467,-0.065
0.467,-0.068
0.467,0.007
0.468,0.015
0.468,0.132
0.468,0.133
0.468,0.15
0.469,0.138
0.469,0.083
0.469,0.082
0.469,0.022
0.469,0.02
0.47,-0.003
0.47,-0.003
0.47,0.003
0.47,0.002
0.471,-0.068
0.471,-0.093
0.471,0.102
0.471,0.103
0.472,-0.087
0.472,0.135
0.472,-0.212
0.472,-0.197
0.473,-0.26
0.473,-0.248
0.473,-0.135
0.473,-0.13
0.474,-0.073
0.474,-0.073
0.474,-0.06
0.474,-0.06
0.475,-0.052
0.475,-0.052
0.475,-0.042
0.475,-0.042
0.476,-0.035
0.476,-0.037
0.476,-0.033
0.476,-0.033
0.477,-0.035
0.477,-0.035
0.477,-0.03
0.477,-0.032
0.478,-0.028
0.478,-0.028
0.478,-0.025
0.478,-0.025
0.479,-0.022
0.479,-0.02
0.479,-0.017
0.479,-0.018
0.48,-0.02
0.48,-0.02
0.48,-0.015
0.48,-0.015
0.481,-0.012
0.481,-0.01
0.481,0
0.481,0
0.482,0.008
0.482,0.008
0.482,0.013
0.482,0.013
0.483,0.018
0.483,0.018
0.483,0.023
0.483,0.023
0.484,0.03
0.484,0.03
0.484,0.033
0.484,0.032
0.485,0.035
0.485,0.035
0.485,0.038
0.485,0.035
0.486,0.023
0.486,0.023
0.486,0
0.486,0
0.487,-0.012
0.487,-0.012
0.487,-0.017
0.487,-0.013
0.488,-0.008
0.488,-0.008
0.488,0
0.488,0
0.489,0.007
0.489,0.008
0.489,0.015
0.489,0.015
0.49,0.022
0.49,0.02
0.49,0.03
0.49,0.028
0.491,0.035
0.491,0.033
0.491,0.037
0.491,0.037
0.492,0.04
0.492,0.04
0.492,0.037
0.492,0.038
0.493,0.03
0.493,0.03
0.493,0.027
0.493,0.027
0.494,0.033
0.494,0.033
0.494,0.04
0.494,0.04
0.495,0.038
0.495,0.042
0.495,0.047
0.495,0.047
0.496,0.043
0.496,0.045
0.496,0.042
0.496,0.042
0.497,0.038
0.497,0.038
0.497,0.043
0.497,0.043
0.498,0.05
0.498,0.05
0.498,0.065
0.498,0.067
0.499,0.08
0.499,0.078
0.499,0.073
0.499,0.077
0.5,0.068
0.5,0.1
0.5,0.067
0.5,0.058
0.501,0.057
0.501,0.04
0.501,0.042
0.501,0.03
0.502,0.03
0.502,0.033
0.502,0.033
0.502,0.032
0.503,0.032
0.503,0.025
0.503,0.025
0.503,0.022
0.504,0.023
0.504,0.02
0.504,0.023
0.504,0.03
0.505,0.028
0.505,0.033
0.505,0.033
0.505,0.037
0.506,0.037
0.506,0.038
0.506,0.038
0.506,0.035
0.507,0.037
0.507,0.032
0.507,0.033
0.507,0.028
0.508,0.027
0.508,0.032
0.508,0.032
0.508,0.038
0.509,0.04
0.509,0.048
0.509,0.048
0.509,0.058
0.51,0.06
0.51,0.053
0.51,0.053
0.51,0.047
0.511,0.047
0.511,0.043
0.511,0.045
0.511,0.042
0.512,0.045
0.512,0.05
0.512,0.048
0.512,0.057
0.513,0.057
0.513,0.05
0.513,0.05
0.513,0.042
0.514,0.042
0.514,0.033
0.514,0.033
0.514,0.025
0.515,0.027
0.515,0.04
0.515,0.04
0.515,0.053
0.516,0.053
0.516,0.05
0.516,0.053
0.516,0.048
0.517,0.05
0.517,0.047
0.517,0.047
0.517,0.05
0.518,0.047
0.518,0.045
0.518,0.047
0.518,0.045
0.519,0.045
0.519,0.048
0.519,0.05
0.519,0.055
0.52,0.055
0.52,0.06
0.52,0.06
0.52,0.062
0.521,0.058
0.521,0.05
0.521,0.048
0.521,0.037
0.522,0.04
0.522,0.035
0.522,0.035
0.522,0.037
0.523,0.035
0.523,0.037
0.523,0.037
0.523,0.04
0.524,0.038
0.524,0.037
0.524,0.037
0.524,0.033
0.525,0.033
0.525,0.027
0.525,0.027
0.525,0.03
0.526,0.028
0.526,0.035
0.526,0.035
0.526,0.037
0.527,0.035
0.527,0.02
0.527,0.018
0.527,-0.002
0.528,-0.003
0.528,-0.017
0.528,-0.018
0.528,-0.03
0.529,-0.032
0.529,-0.028
0.529,-0.028
0.529,-0.018
0.53,-0.018
0.53,-0.012
0.53,-0.012
0.53,-0.003
0.531,-0.003
0.531,0.005
0.531,0.007
0.531,-0.008
0.532,-0.01
0.532,-0.068
0.532,-0.072
0.532,-0.125
0.533,-0.12
0.533,-0.062
0.533,-0.057
0.533,0.025
0.534,0.028
0.534,0.08
0.534,0.083
0.534,0.062
0.535,0.06
0.535,0.027
0.535,0.025
0.535,0.008
0.536,0.007
0.536,-0.002
0.536,-0.002
0.536,-0.005
0.537,-0.005
0.537,-0.007
0.537,-0.008
0.537,-0.005
0.538,-0.003
0.538,-0.007
0.538,-0.003
0.538,-0.01
0.539,-0.01
0.539,-0.013
0.539,-0.01
0.539,-0.013
0.54,-0.015
0.54,-0.017
0.54,-0.015
0.54,-0.025
0.541,-0.028
0.541,-0.02
0.541,-0.027
0.541,-0.09
0.542,-0.095
0.542,-0.122
0.542,-0.1
0.542,0.003
0.543,0.007
0.543,0.053
0.543,0.055
0.543,0.048
0.544,0.048
0.544,0.035
0.544,0.033
0.544,0.025
0.545,0.023
0.545,0.025
0.545,0.025
0.545,0.023
0.546,0.023
0.546,0.018
0.546,0.017
0.546,0.013
0.547,0.017
0.547,0.012
0.547,0.015
0.547,0.013
0.548,0.015
0.548,0.04
0.548,0.043
0.548,0.072
0.549,0.072
0.549,-0.132
0.549,-0.135
0.549,-0.12
0.55,-0.12
0.55,-0.097
0.55,-0.095
0.55,-0.083
0.551,-0.082
0.551,-0.068
0.551,-0.067
0.551,-0.057
0.552,-0.057
0.552,-0.062
0.552,-0.063
0.552,-0.093
0.553,-0.093
0.553,-0.103
0.553,-0.098
0.553,0
0.554,0.005
0.554,0.085
0.554,0.09
0.554,0.077
0.555,0.075
0.555,0.067
0.555,0.068
0.555,0.065
0.556,0.065
0.556,0.048
0.556,0.053
0.556,0.042
0.557,0.042
0.557,0.037
0.557,0.038
0.557,0.033
0.558,0.035
0.558,0.048
0.558,0.048
0.558,0.058
0.559,0.052
0.559,-0.028
0.559,-0.023
0.559,0.173
0.56,0.002
0.56,0.177
0.56,0.092
0.56,-0.21
0.561,-0.175
0.561,-0.238
0.561,-0.198
0.561,-0.13
0.562,-0.128
0.562,-0.103
0.562,-0.103
0.562,-0.093
0.563,-0.092
0.563,-0.08
0.563,-0.08
0.564,-0.067
0.564,-0.068
0.564,-0.052
0.564,-0.05
0.565,-0.035
0.565,-0.035
0.565,-0.02
0.565,-0.02
0.566,-0.012
0.566,-0.012
0.566,-0.01
0.566,-0.012
0.567,-0.008
0.567,-0.012
0.567,-0.002
0.567,-0.002
0.568,0.013
0.568,0.013
0.568,0.017
0.568,0.012
0.569,0.017
0.569,0.015
0.569,0.02
0.569,0.017
0.57,0.022
0.57,0.022
0.57,0.033
0.57,0.033
0.571,0.058
0.571,0.06
0.571,0.095
0.571,0.097
0.572,0.157
0.572,0.16
0.572,0.238
0.572,0.247
0.573,0.078
0.573,0.065
0.573,-0.103
0.573,-0.158
0.574,-0.09
0.574,-0.083
0.574,0.02
0.574,0.023
0.575,0.052
0.575,0.048
0.575,0.007
0.575,0.003
0.576,-0.043
0.576,-0.045
0.576,-0.078
0.576,-0.08
0.577,-0.098
0.577,-0.1
0.577,-0.108
0.577,-0.108
0.578,-0.113
0.578,-0.115
0.578,-0.12
0.578,-0.118
0.579,-0.122
0.579,-0.12
0.579,-0.117
0.579,-0.117
0.58,-0.105
0.58,-0.105
0.58,-0.092
0.58,-0.092
0.581,-0.073
0.581,-0.073
0.581,-0.06
0.581,-0.06
0.582,-0.048
0.582,-0.048
0.582,-0.045
0.582,-0.048
0.583,-0.045
0.583,-0.045
0.583,-0.037
0.583,-0.037
0.584,-0.035
0.584,-0.035
0.584,-0.035
0.584,-0.037
0.585,-0.033
0.585,-0.033
0.585,-0.027
0.585,-0.028
0.586,-0.025
0.586,-0.025
0.586,-0.033
0.586,-0.032
0.587,-0.037
0.587,-0.037
0.587,-0.043
0.587,-0.045
0.588,-0.055
0.588,-0.053
0.588,-0.065
0.588,-0.065
0.589,-0.07
0.589,-0.068
0.589,-0.06
0.589,-0.06
0.59,-0.042
0.59,-0.04
0.59,-0.018
0.59,-0.017
0.591,-0.005
0.591,-0.005
0.591,-0.008
0.591,-0.007
0.592,-0.003
0.592,-0.003
0.592,-0.002
0.592,-0.005
0.593,0
0.593,0
0.593,-0.008
0.593,-0.008
0.594,-0.018
0.594,-0.018
0.594,-0.027
0.594,-0.027
0.595,-0.03
0.595,-0.027
0.595,-0.018
0.595,-0.018
0.596,-0.007
0.596,-0.008
0.596,-0.002
0.596,-0.003
0.597,0
0.597,0
0.597,0.002
0.597,0.002
0.598,-0.003
0.598,-0.005
0.598,0
0.598,-0.002
0.599,-0.003
0.599,-0.003
0.599,-0.005
0.599,-0.007
0.6,-0.003
0.6,-0.005
0.6,-0.015
0.6,-0.015
0.601,-0.018
0.601,-0.018
0.601,-0.015
0.601,-0.015
0.602,-0.012
0.602,-0.012
0.602,-0.007
0.602,-0.008
0.603,-0.005
0.603,-0.007
0.603,-0.005
0.603,-0.003
0.604,0.002
0.604,0.002
0.604,0.005
0.604,0
0.605,0.003
0.605,0.002
0.605,0.008
0.605,0.008
0.606,0.023
0.606,0.025
0.606,0.05
0.606,0.05
0.607,0.068
0.607,0.068
0.607,0.072
0.607,0.068
0.608,0.062
0.608,0.06
0.608,0.057
0.608,0.057
0.609,0.052
0.609,0.052
0.609,0.048
0.609,0.048
0.61,0.05
0.61,0.05
0.61,0.047
0.61,0.048
0.611,0.045
0.611,0.047
0.611,0.05
0.611,0.05
0.612,0.057
0.612,0.057
0.612,0.058
0.612,0.058
0.613,0.062
0.613,0.06
0.613,0.062
0.613,0.058
0.614,0.062
0.614,0.062
0.614,0.058
0.614,0.062
0.615,0.068
0.615,0.073
0.615,0.067
0.615,0.065
0.616,0.025
0.616,0.022
0.616,-0.06
0.616,-0.07
0.617,-0.055
0.617,-0.053
0.617,0.023
0.617,0.027
0.618,0.092
0.618,0.095
0.618,0.112
0.618,0.108
0.619,0.095
0.619,0.095
0.619,0.083
0.619,0.085
0.62,0.075
0.62,0.075
0.62,0.06
0.62,0.06
0.621,0.05
0.621,0.05
0.621,0.047
0.621,0.047
0.622,0.05
0.622,0.05
0.622,0.055
0.622,0.055
0.623,0.053
0.623,0.055
0.623,0.052
0.623,0.05
0.624,0.047
0.624,0.045
0.624,0.05
0.624,0.05
0.625,0.048
0.625,0.05
0.625,0.047
0.625,0.048
0.625,0.042
0.626,0.042
0.626,0.038
0.626,0.04
0.626,0.037
0.627,0.042
0.627,0.043
0.627,0.045
0.627,0.05
0.628,0.05
0.628,0.055
0.628,0.053
0.628,0.052
0.629,0.053
0.629,0.045
0.629,0.045
0.629,0.035
0.63,0.035
0.63,0.025
0.63,0.025
0.63,0.018
0.631,0.018
0.631,0.01
0.631,0.01
0.631,0.005
0.632,0.005
0.632,0.002
0.632,0.002
0.632,0.003
0.633,0
0.633,0.003
0.633,0.002
0.633,0.007
0.634,0.005
0.634,0.015
0.634,0.015
0.634,0.032
0.635,0.033
0.635,0.047
0.635,0.048
0.635,0.058
0.636,0.058
0.636,0.05
0.636,0.05
0.636,0.037
0.637,0.037
0.637,0.025
0.637,0.025
0.637,0.018
0.638,0.018
0.638,0.015
0.638,0.015
0.638,0.017
0.639,0.017
0.639,0.013
0.639,0.013
0.639,0.01
0.64,0.013
0.64,0.01
0.64,0.01
0.64,0.007
0.641,0.008
0.641,0.01
0.641,0.008
0.641,0.012
0.642,0.013
0.642,0.01
0.642,0.013
0.642,0.015
0.643,0.015
0.643,0.012
0.643,0.013
0.643,0.008
0.644,0.01
0.644,0.005
0.644,0.005
0.644,-0.002
0.645,-0.002
0.645,-0.028
0.645,-0.03
0.645,-0.063
0.646,-0.067
0.646,-0.037
0.646,-0.033
0.646,0.038
0.647,0.04
0.647,0.053
0.647,0.048
0.647,0.035
0.648,0.037
0.648,0.042
0.648,0.042
0.648,0.035
0.649,0.035
0.649,0.028
0.649,0.027
0.649,0.01
0.65,0.01
0.65,0.003
0.65,0.002
0.65,-0.003
0.651,-0.003
0.651,0
0.651,0
0.651,0.003
0.652,0.002
0.652,0.007
0.652,0.007
0.652,0.017
0.653,0.015
0.653,0.018
0.653,0.017
0.653,0.022
0.654,0.022
0.654,0.023
0.654,0.023
0.654,0.027
0.655,0.027
0.655,0.038
0.655,0.038
0.655,0.048
0.656,0.048
0.656,0.072
0.656,0.075
0.656,0.112
0.657,0.112
0.657,-0.058
0.657,-0.057
0.657,-0.017
0.658,-0.015
0.658,0.025
0.658,0.025
0.658,0.055
0.659,0.07
0.659,0.033
0.659,-0.03
0.659,0.04
0.66,0.08
0.66,-0.097
0.66,0.157
0.66,-0.08
0.661,-0.08
0.661,-0.132
0.661,-0.133
0.661,-0.062
0.662,-0.058
0.662,-0.023
0.662,-0.023
0.662,-0.028
0.663,-0.028
0.663,-0.037
0.663,-0.037
0.663,-0.045
0.664,-0.043
0.664,-0.042
0.664,-0.04
0.664,-0.03
0.665,-0.028
0.665,-0.017
0.665,-0.017
0.665,-0.01
0.666,-0.01
0.666,-0.003
0.666,-0.003
0.666,0.002
0.667,0.002
0.667,0.003
0.667,0.003
0.667,-0.003
0.668,-0.005
0.668,-0.008
0.668,-0.007
0.668,-0.003
0.669,-0.005
0.669,-0.003
0.669,-0.005
0.669,-0.008
0.67,-0.008
0.67,-0.013
0.67,-0.013
0.67,-0.017
0.671,-0.015
0.671,-0.022
0.671,-0.022
0.671,-0.028
0.672,-0.028
0.672,-0.032
0.672,-0.033
0.672,-0.028
0.673,-0.028
0.673,-0.022
0.673,-0.022
0.673,-0.017
0.674,-0.017
0.674,-0.015
0.674,-0.015
0.674,-0.018
0.675,-0.018
0.675,-0.018
0.675,-0.02
0.675,-0.015
0.676,-0.017
0.676,-0.012
0.676,-0.013
0.676,-0.005
0.677,-0.005
0.677,0
0.677,0
0.677,0.002
0.678,0.002
0.678,0
0.678,0
0.678,-0.01
0.679,-0.01
0.679,-0.023
0.679,-0.023
0.679,-0.033
0.68,-0.033
0.68,-0.027
0.68,-0.027
0.68,-0.018
0.681,-0.015
0.681,-0.02
0.681,-0.02
0.681,-0.008
0.682,-0.008
0.682,0.003
0.682,0.003
0.682,0.005
0.683,0.002
0.683,-0.003
0.683,-0.002
0.683,0.002
0.684,-0.002
0.684,0.01
0.684,0.01
0.684,0.028
0.685,0.03
0.685,0.05
0.685,0.052
0.685,0.08
0.686,0.082
0.686,0.143
0.686,0.143
0.686,0.185
0.687,0.162
0.687,-0.125
0.687,-0.142
0.688,-0.125
0.688,-0.127
0.688,-0.072
0.688,-0.067
0.689,0.03
0.689,0.033
0.689,0.052
0.689,0.048
0.69,0.018
0.69,0.017
0.69,-0.025
0.69,-0.027
0.691,-0.053
0.691,-0.055
0.691,-0.068
0.691,-0.068
0.692,-0.082
0.692,-0.082
0.692,-0.085
0.692,-0.085
0.693,-0.077
0.693,-0.078
0.693,-0.067
0.693,-0.065
0.694,-0.053
0.694,-0.052
0.694,-0.043
0.694,-0.042
0.695,-0.032
0.695,-0.033
0.695,-0.045
0.695,-0.045
0.696,-0.052
0.696,-0.052
0.696,-0.057
0.696,-0.058
0.697,-0.092
0.697,-0.095
0.697,-0.172
0.697,-0.175
0.698,-0.188
0.698,-0.177
0.698,-0.068
0.698,-0.065
0.699,0.035
0.699,0.04
0.699,0.085
0.699,0.087
0.7,0.065
0.7,0.063
0.7,0.022
0.7,0.02
0.701,-0.01
0.701,-0.01
0.701,-0.02
0.701,-0.022
0.702,-0.025
0.702,-0.025
0.702,-0.027
0.702,-0.025
0.703,-0.028
0.703,-0.027
0.703,-0.022
0.703,-0.023
0.704,-0.018
0.704,-0.018
0.704,-0.017
0.704,-0.017
0.705,-0.013
0.705,-0.012
0.705,-0.005
0.705,-0.007
0.706,-0.003
0.706,-0.007
0.706,-0.01
0.706,-0.01
0.707,-0.008
0.707,-0.01
0.707,-0.015
0.707,-0.015
0.708,-0.02
0.708,-0.02
0.708,-0.032
0.708,-0.032
0.709,-0.028
0.709,-0.028
0.709,-0.02
0.709,-0.022
0.71,-0.017
0.71,-0.017
0.71,-0.015
0.71,-0.013
0.711,-0.008
0.711,-0.007
0.711,0.002
0.711,0.002
0.712,0.003
0.712,0.002
0.712,-0.003
0.712,-0.005
0.713,-0.015
0.713,-0.017
0.713,-0.035
0.713,-0.035
0.714,-0.042
0.714,-0.042
0.714,-0.037
0.714,-0.037
0.715,-0.025
0.715,-0.025
0.715,-0.017
0.715,-0.017
0.716,-0.027
0.716,-0.027
0.716,-0.033
0.716,-0.033
0.717,-0.038
0.717,-0.037
0.717,-0.04
0.717,-0.04
0.718,-0.045
0.718,-0.047
0.718,-0.043
0.718,-0.043
0.719,-0.04
0.719,-0.04
0.719,-0.038
0.719,-0.038
0.72,-0.033
0.72,-0.033
0.72,-0.028
0.72,-0.028
0.721,-0.022
0.721,-0.022
0.721,-0.017
0.721,-0.017
0.722,-0.01
0.722,-0.01
0.722,-0.002
0.722,-0.002
0.723,0.013
0.723,0.013
0.723,0.033
0.723,0.035
0.724,0.043
0.724,0.042
0.724,0.028
0.724,0.028
0.725,0.012
0.725,0.012
0.725,0.002
0.725,0.002
0.726,-0.007
0.726,-0.007
0.726,-0.017
0.726,-0.018
0.727,-0.057
0.727,-0.058
0.727,-0.078
0.727,-0.077
0.728,-0.012
0.728,-0.008
0.728,0.043
0.728,0.043
0.729,0.028
0.729,0.027
0.729,0.017
0.729,0.018
0.73,0.017
0.73,0.015
0.73,0.003
0.73,0.003
0.731,-0.008
0.731,-0.008
0.731,-0.012
0.731,-0.012
0.732,-0.008
0.732,-0.01
0.732,-0.007
0.732,-0.01
0.733,-0.008
0.733,-0.008
0.733,-0.008
0.733,-0.007
0.734,-0.01
0.734,-0.01
0.734,-0.007
0.734,-0.008
0.735,-0.01
0.735,-0.008
0.735,-0.01
0.735,-0.008
0.736,-0.005
0.736,-0.007
0.736,-0.005
0.736,-0.007
0.737,-0.012
0.737,-0.012
0.737,-0.017
0.737,-0.015
0.738,-0.018
0.738,-0.018
0.738,-0.015
0.738,-0.017
0.739,-0.013
0.739,-0.013
0.739,-0.01
0.739,-0.01
0.74,-0.005
0.74,-0.007
0.74,-0.002
0.74,-0.003
0.741,-0.002
0.741,-0.002
0.741,0.003
0.741,0.003
0.742,0.01
0.742,0.01
0.742,0.015
0.742,0.015
0.743,0.037
0.743,0.04
0.743,0.1
0.743,0.102
0.744,-0.057
0.744,-0.055
0.744,-0.018
0.744,-0.017
0.745,0.007
0.745,0.007
0.745,0.022
0.745,0.022
0.746,0.028
0.746,0.028
0.746,0.03
0.746,0.028
0.747,0.035
0.747,0.037
0.747,0.063
0.747,0.065
0.748,0.085
0.748,0.078
0.748,0.008
0.748,0.01
0.749,0.167
0.749,0.002
0.749,0.187
0.749,0.197
0.75,-0.127
0.75,-0.113
0.75,-0.177
0.75,0.1
0.75,-0.145
0.751,-0.068
0.751,-0.067
0.751,-0.037
0.751,-0.037
0.752,-0.027
0.752,-0.027
0.752,-0.025
0.752,-0.025
0.753,-0.03
0.753,-0.03
0.753,-0.023
0.753,-0.025
0.754,-0.013
0.754,-0.012
0.754,-0.002
0.754,0
0.755,0.013
0.755,0.013
0.755,0.027
0.755,0.028
0.756,0.037
0.756,0.038
0.756,0.028
0.756,0.028
0.757,0.01
0.757,0.008
0.757,0.002
0.757,0.002
0.758,0.005
0.758,0.003
0.758,0.008
0.758,0.008
0.759,0.003
0.759,0.003
0.759,-0.003
0.759,-0.002
0.76,-0.012
0.76,-0.013
0.76,-0.007
0.76,-0.008
0.761,-0.033
0.761,-0.035
0.761,-0.088
0.761,-0.08
0.762,0.007
0.762,0.012
0.762,0.072
0.762,0.075
0.763,0.068
0.763,0.068
0.763,0.045
0.763,0.045
0.764,0.032
0.764,0.032
0.764,0.028
0.764,0.032
0.765,0.033
0.765,0.033
0.765,0.042
0.765,0.04
0.766,0.043
0.766,0.042
0.766,0.043
0.766,0.042
0.767,0.04
0.767,0.04
0.767,0.032
0.767,0.032
0.768,0.018
0.768,0.017
0.768,0.01
0.768,0.01
0.769,0.003
0.769,0.003
0.769,0.007
0.769,0.005
0.77,0.008
0.77,0.007
0.77,0.002
0.77,0.002
0.771,-0.002
0.771,0
0.771,-0.01
0.771,-0.008
0.772,-0.015
0.772,-0.013
0.772,-0.015
0.772,-0.015
0.773,-0.02
0.773,-0.02
0.773,-0.022
0.773,-0.02
0.774,-0.01
0.774,-0.01
0.774,0.007
0.774,0.007
0.775,0.02
0.775,0.02
0.775,0.035
0.775,0.035
0.776,0.04
0.776,0.038
0.776,0.035
0.776,0.037
0.777,0.027
0.777,0.025
0.777,0.017
0.777,0.013
0.778,0.025
0.778,0.027
0.778,0.042
0.778,0.042
0.779,0.052
0.779,0.052
0.779,0.057
0.779,0.057
0.78,0.05
0.78,0.05
0.78,0.037
0.78,0.035
0.781,0.017
0.781,0.015
0.781,-0.01
0.781,-0.012
0.782,-0.05
0.782,-0.052
0.782,-0.12
0.782,-0.123
0.783,-0.165
0.783,-0.167
0.783,-0.073
0.783,-0.067
0.784,0.048
0.784,0.052
0.784,0.105
0.784,0.105
0.785,0.072
0.785,0.068
0.785,0.027
0.785,0.025
0.786,-0.005
0.786,-0.007
0.786,-0.025
0.786,-0.027
0.787,-0.038
0.787,-0.04
0.787,-0.035
0.787,-0.035
0.788,-0.038
0.788,-0.038
0.788,-0.025
0.788,-0.023
0.789,-0.01
0.789,-0.008
0.789,0
0.789,-0.002
0.79,0.005
0.79,0.005
0.79,0.008
0.79,0.01
0.791,0.017
0.791,0.017
0.791,0.033
0.791,0.035
0.792,0.06
0.792,0.062
0.792,0.108
0.792,0.11
0.793,0.18
0.793,0.182
0.793,0.215
0.793,0.183
0.794,-0.092
0.794,-0.105
0.794,-0.062
0.794,-0.057
0.795,-0.01
0.795,-0.005
0.795,0.067
0.795,0.073
0.796,0.065
0.796,0.063
0.796,0.02
0.796,0.018
0.797,-0.022
0.797,-0.023
0.797,-0.052
0.797,-0.052
0.798,-0.07
0.798,-0.072
0.798,-0.088
0.798,-0.088
0.799,-0.098
0.799,-0.098
0.799,-0.108
0.799,-0.108
0.8,-0.112
0.8,-0.108
0.8,-0.097
0.8,-0.097
0.801,-0.085
0.801,-0.085
0.801,-0.073
0.801,-0.073
0.802,-0.067
0.802,-0.067
0.802,-0.062
0.802,-0.062
0.803,-0.058
0.803,-0.058
0.803,-0.063
0.803,-0.063
0.804,-0.06
0.804,-0.06
0.804,-0.057
0.804,-0.057
0.805,-0.045
0.805,-0.047
0.805,-0.04
0.805,-0.04
0.806,-0.03
0.806,-0.03
0.806,-0.015
0.806,-0.015
0.807,0
0.807,0.002
0.807,0.015
0.807,0.015
0.808,0.02
0.808,0.018
0.808,0.022
0.808,0.02
0.809,0.015
0.809,0.015
0.809,0.008
0.809,0.008
0.81,0.005
0.81,0.003
0.81,0.008
0.81,0.008
0.811,0.02
0.811,0.022
0.811,0.037
0.811,0.037
0.812,0.043
0.812,0.042
0.812,0.035
0.812,0.033
0.813,0.008
0.813,0.007
0.813,-0.025
0.814,-0.027
0.814,-0.045
0.814,-0.047
0.814,-0.04
0.815,-0.038
0.815,-0.023
0.815,-0.022
0.815,-0.01
0.816,-0.01
0.816,-0.003
0.816,-0.003
0.816,0
0.817,-0.002
0.817,0.002
0.817,0.002
0.817,-0.003
0.818,-0.002
0.818,-0.008
0.818,-0.008
0.818,-0.01
0.819,-0.012
0.819,-0.017
0.819,-0.017
0.819,-0.015
0.82,-0.015
0.82,-0.01
0.82,-0.012
0.82,-0.005
0.821,-0.007
0.821,-0.003
0.821,-0.003
0.821,-0.007
0.822,-0.008
0.822,-0.018
0.822,-0.018
0.822,-0.027
0.823,-0.028
0.823,-0.025
0.823,-0.027
0.823,-0.023
0.824,-0.023
0.824,-0.018
0.824,-0.017
0.824,-0.01
0.825,-0.007
0.825,-0.012
0.825,-0.013
0.825,-0.048
0.826,-0.05
0.826,-0.092
0.826,-0.102
0.826,-0.073
0.827,-0.07
0.827,0.005
0.827,0.007
0.827,0.018
0.828,0.012
0.828,-0.003
0.828,-0.002
0.828,0.003
0.829,0.007
0.829,0
0.829,-0.002
0.829,-0.005
0.83,-0.005
0.83,-0.017
0.83,-0.015
0.83,-0.008
0.831,-0.008
0.831,0.003
0.831,0.003
0.831,0.017
0.832,0.017
0.832,0.027
0.832,0.027
0.832,0.025
0.833,0.027
0.833,0.03
0.833,0.032
0.833,0.022
0.834,0.022
0.834,0.015
0.834,0.015
0.834,0.023
0.835,0.025
0.835,0.035
0.835,0.037
0.835,0.065
0.836,0.067
0.836,0.1
0.836,0.102
0.836,0.057
0.837,0.055
0.837,0.18
0.837,-0.015
0.837,0.153
0.838,0.162
0.838,-0.148
0.838,-0.092
0.838,-0.127
0.839,-0.095
0.839,-0.202
0.839,-0.175
0.839,-0.1
0.84,-0.098
0.84,-0.055
0.84,-0.053
0.84,-0.033
0.841,-0.033
0.841,-0.028
0.841,-0.028
0.841,-0.023
0.842,-0.025
0.842,-0.022
0.842,-0.022
0.842,-0.023
0.843,-0.023
0.843,-0.01
0.843,-0.01
0.843,-0.002
0.844,-0.002
0.844,0
0.844,0
0.844,-0.008
0.845,-0.008
0.845,-0.018
0.845,-0.018
0.845,-0.023
0.846,-0.023
0.846,-0.025
0.846,-0.023
0.846,-0.017
0.847,-0.015
0.847,-0.005
0.847,-0.005
0.847,0.002
0.848,0.003
0.848,0.008
0.848,0.005
0.848,0.008
0.849,0.007
0.849,0.01
0.849,0.01
0.849,0.008
0.85,0.008
0.85,0.003
0.85,0.003
0.85,0.002
0.851,0.002
0.851,0.01
0.851,0.012
0.851,0.015
0.852,0.015
0.852,0.013
0.852,0.013
0.852,0.005
0.853,0.003
0.853,-0.003
0.853,-0.003
0.853,-0.007
0.854,-0.005
0.854,-0.008
0.854,-0.007
0.854,-0.003
0.855,-0.003
0.855,0.003
0.855,0.002
0.855,0.01
0.856,0.01
0.856,0.025
0.856,0.025
0.856,0.032
0.857,0.03
0.857,0.023
0.857,0.023
0.857,0.02
0.858,0.022
0.858,0.025
0.858,0.023
0.858,0.025
0.859,0.023
0.859,0.02
0.859,0.02
0.859,0.012
0.86,0.013
0.86,0.008
0.86,0.008
0.86,0.005
0.861,0.005
0.861,0.008
0.861,0.008
0.861,0.002
0.862,0
0.862,-0.04
0.862,-0.043
0.862,-0.123
0.863,-0.127
0.863,-0.132
0.863,-0.125
0.863,-0.033
0.864,-0.03
0.864,0.025
0.864,0.027
0.864,0.042
0.865,0.038
0.865,0.008
0.865,0.007
0.865,-0.065
0.866,-0.072
0.866,-0.015
0.866,-0.012
0.866,0.072
0.867,0.075
0.867,0.095
0.867,0.092
0.867,0.058
0.868,0.057
0.868,0.033
0.868,0.033
0.868,0.03
0.869,0.028
0.869,0.033
0.869,0.035
0.869,0.042
0.87,0.042
0.87,0.038
0.87,0.04
0.87,0.035
0.871,0.035
0.871,0.033
0.871,0.033
0.871,0.028
0.872,0.028
0.872,0.018
0.872,0.018
0.872,0.01
0.873,0.008
0.873,0.005
0.873,0.007
0.873,0.01
0.874,0.008
0.874,0.013
0.874,0.013
0.874,0.012
0.875,0.013
0.875,0.015
0.875,0.015
0.875,0.013
0.875,0.015
0.876,0.018
0.876,0.017
0.876,0.018
0.876,0.018
0.877,0.015
0.877,0.015
0.877,0.018
0.877,0.017
0.878,0.02
0.878,0.02
0.878,0.017
0.878,0.017
0.879,0.02
0.879,0.018
0.879,0.017
0.879,0.018
0.88,0.017
0.88,0.018
0.88,0.013
0.88,0.013
0.881,0.01
0.881,0.01
0.881,0.007
0.881,0.008
0.882,0.007
0.882,0.007
0.882,0.005
0.882,0.005
0.883,0.008
0.883,0.008
0.883,0.007
0.883,0.007
0.884,0.005
0.884,0.005
0.884,0.01
0.884,0.01
0.885,0.008
0.885,0.008
0.885,0.007
0.885,0.008
0.886,0.005
0.886,0.005
0.886,0.01
0.886,0.01
0.887,0.013
0.887,0.015
0.887,0.013
0.887,0.015
0.888,0.017
0.888,0.015
0.888,0.008
0.888,0.008
0.889,0.002
0.889,0
0.889,-0.007
0.889,-0.008
0.89,-0.013
0.89,-0.01
0.89,-0.013
0.89,-0.013
0.891,-0.015
0.891,-0.013
0.891,-0.015
0.891,-0.013
0.892,-0.015
0.892,-0.012
0.892,-0.015
0.892,-0.013
0.893,-0.017
0.893,-0.017
0.893,-0.013
0.893,-0.015
0.894,-0.007
0.894,-0.007
0.894,-0.002
0.894,-0.002
0.895,0.012
0.895,0.012
0.895,0.018
0.895,0.017
0.896,0.02
0.896,0.02
0.896,0.023
0.896,0.022
0.897,0.017
0.897,0.018
0.897,0.012
0.897,0.012
0.898,0.02
0.898,0.02
0.898,0.028
0.898,0.027
0.899,0.04
0.899,0.038
0.899,0.042
0.899,0.04
0.9,0.035
0.9,0.035
0.9,0.025
0.9,0.025
0.901,0.023
0.901,0.023
0.901,0.035
0.901,0.035
0.902,0.042
0.902,0.042
0.902,0.045
0.902,0.043
0.903,0.052
0.903,0.052
0.903,0.06
0.903,0.062
0.904,0.08
0.904,0.08
0.904,0.105
0.904,0.107
0.905,0.14
0.905,0.142
0.905,0.195
0.905,0.198
0.906,0.257
0.906,0.257
0.906,0.027
0.906,0.013
0.907,-0.075
0.907,-0.033
0.907,-0.057
0.907,-0.035
0.908,0.06
0.908,0.063
0.908,0.082
0.908,0.077
0.909,0.028
0.909,0.027
0.909,-0.028
0.909,-0.032
0.91,-0.073
0.91,-0.075
0.91,-0.103
0.91,-0.105
0.911,-0.113
0.911,-0.113
0.911,-0.103
0.911,-0.102
0.912,-0.088
0.912,-0.088
0.912,-0.107
0.912,-0.108
0.913,-0.133
0.913,-0.135
0.913,-0.09
0.913,-0.087
0.914,-0.013
0.914,-0.012
0.914,0.002
0.914,-0.002
0.915,0.002
0.915,0.003
0.915,0.023
0.915,0.027
0.916,0.022
0.916,0.022
0.916,0.015
0.916,0.013
0.917,0.007
0.917,0.007
0.917,0.005
0.917,0.007
0.918,0.008
0.918,0.008
0.918,0.01
0.918,0.01
0.919,0.012
0.919,0.012
0.919,0.013
0.919,0.013
0.92,0.018
0.92,0.017
0.92,0.025
0.92,0.023
0.921,0.027
0.921,0.027
0.921,0.028
0.921,0.028
0.922,0.025
0.922,0.027
0.922,0.023
0.922,0.025
0.923,0.015
0.923,0.015
0.923,0.002
0.923,0.002
0.924,-0.005
0.924,-0.003
0.924,0
0.924,0.002
0.925,0.008
0.925,0.008
0.925,0.012
0.925,0.01
0.926,0
0.926,0
0.926,-0.007
0.926,-0.008
0.927,-0.012
0.927,-0.01
0.927,-0.007
0.927,-0.008
0.928,-0.005
0.928,-0.005
0.928,-0.007
0.928,-0.003
0.929,0.005
0.929,0.007
0.929,0.018
0.929,0.02
0.93,0.037
0.93,0.038
0.93,0.063
0.93,0.065
0.931,0.107
0.931,0.11
0.931,0.145
0.931,0.152
0.932,0.1
0.932,0.113
0.932,0.323
0.932,0.168
0.933,0.033
0.933,0.042
0.933,-0.193
0.933,-0.217
0.934,-0.153
0.934,-0.148
0.934,-0.073
0.934,-0.072
0.935,-0.052
0.935,-0.052
0.935,-0.043
0.935,-0.043
0.936,-0.035
0.936,-0.038
0.936,-0.032
0.936,-0.032
0.937,-0.035
0.937,-0.033
0.937,-0.037
0.938,-0.035
0.938,-0.028
0.938,-0.028
0.938,-0.018
0.939,-0.017
0.939,-0.003
0.939,-0.003
0.939,0.007
0.94,0.008
0.94,0.012
0.94,0.01
0.94,0.003
0.941,0.003
0.941,0
0.941,0.003
0.941,0.01
0.942,0.01
0.942,0.017
0.942,0.017
0.942,0.012
0.943,0.012
0.943,0.008
0.943,0.008
0.943,0.003
0.944,0.003
0.944,-0.002
0.944,-0.002
0.944,-0.01
0.945,-0.012
0.945,-0.015
0.945,-0.015
0.945,-0.013
0.946,-0.013
0.946,-0.012
0.946,-0.013
0.946,-0.018
0.947,-0.018
0.947,-0.017
0.947,-0.017
0.947,-0.012
0.948,-0.012
0.948,-0.008
0.948,-0.01
0.948,-0.008
0.949,-0.01
0.949,-0.008
0.949,-0.008
0.949,-0.003
0.95,-0.003
0.95,0.002
0.95,0
0.95,0.005
0.951,0.005
0.951,0
0.951,-0.002
0.951,-0.053
0.952,-0.055
0.952,-0.133
0.952,-0.138
0.952,-0.105
0.953,-0.1
0.953,0.002
0.953,0.005
0.953,0.075
0.954,0.083
0.954,0.072
0.954,0.07
0.954,0.042
0.955,0.042
0.955,0.025
0.955,0.025
0.955,0.018
0.956,0.018
0.956,0.01
0.956,0.008
0.956,-0.002
0.957,-0.002
0.957,-0.012
0.957,-0.012
0.957,-0.005
0.958,-0.005
0.958,0.018
0.958,0.02
0.958,0.037
0.959,0.037
0.959,0.03
0.959,0.028
0.959,0.017
0.96,0.017
0.96,-0.008
0.96,-0.012
0.96,-0.042
0.961,-0.043
0.961,-0.062
0.961,-0.063
0.961,-0.057
0.962,-0.055
0.962,-0.045
0.962,-0.045
0.962,-0.035
0.963,-0.035
0.963,-0.033
0.963,-0.035
0.963,-0.033
0.964,-0.033
0.964,-0.032
0.964,-0.033
0.964,-0.04
0.965,-0.038
0.965,-0.043
0.965,-0.045
0.965,-0.038
0.966,-0.037
0.966,-0.052
0.966,-0.055
0.966,-0.113
0.967,-0.108
0.967,-0.053
0.967,-0.048
0.967,0.027
0.968,0.028
0.968,0.043
0.968,0.042
0.968,0.035
0.969,0.033
0.969,0.025
0.969,0.025
0.969,0.022
0.97,0.023
0.97,0.017
0.97,0.018
0.97,0.012
0.971,0.012
0.971,0.005
0.971,0.003
0.971,0
0.972,0
0.972,-0.008
0.972,-0.008
0.972,-0.013
0.973,-0.015
0.973,-0.02
0.973,-0.018
0.973,-0.025
0.974,-0.025
0.974,-0.027
0.974,-0.025
0.974,-0.028
0.975,-0.028
0.975,-0.035
0.975,-0.035
0.975,-0.038
0.976,-0.037
0.976,-0.038
0.976,-0.038
0.976,-0.037
0.977,-0.037
0.977,-0.028
0.977,-0.028
0.977,-0.018
0.978,-0.018
0.978,-0.007
0.978,-0.007
0.978,0
0.979,-0.002
0.979,-0.007
0.979,-0.007
0.979,-0.005
0.98,-0.007
0.98,-0.012
0.98,-0.01
0.98,-0.012
0.981,-0.01
0.981,-0.015
0.981,-0.015
0.981,-0.023
0.982,-0.023
0.982,-0.033
0.982,-0.033
0.982,-0.037
0.983,-0.037
0.983,-0.038
0.983,-0.037
0.983,-0.03
0.984,-0.032
0.984,-0.025
0.984,-0.025
0.984,-0.022
0.985,-0.023
0.985,-0.017
0.985,-0.018
0.985,-0.015
0.986,-0.017
0.986,-0.012
0.986,-0.012
0.986,-0.005
0.987,-0.005
0.987,-0.002
0.987,-0.002
0.987,-0.018
0.988,-0.02
0.988,-0.057
0.988,-0.067
0.988,-0.038
0.989,-0.035
0.989,0.052
0.989,0.055
0.989,0.067
0.99,0.062
0.99,0.043
0.99,0.043
0.99,0.028
0.991,0.028
0.991,0.007
0.991,0.007
0.991,-0.002
0.992,-0.003
0.992,-0.012
0.992,-0.015
0.992,-0.01
0.993,-0.01
0.993,0
0.993,0
0.993,0.01
0.994,0.01
0.994,0.028
0.994,0.03
0.994,0.05
0.995,0.05
0.995,0.087
0.995,0.088
0.995,0.153
0.996,0.157
0.996,0.217
0.996,0.215
0.996,-0.043
0.997,-0.05
0.997,-0.1
0.997,-0.088
0.997,-0.04
0.998,-0.033
0.998,0.07
0.998,0.073
0.998,0.095
0.999,0.09
0.999,0.045
0.999,0.042
0.999,-0.017
1,-0.018
1,-0.062
1,-0.063
1,-0.078
1,0.1
1.001,-0.08
1.001,-0.087
1.001,-0.085
1.002,-0.082
1.002,-0.082
1.002,-0.087
1.002,-0.088
1.002,-0.092
1.003,-0.09
1.003,-0.088
1.003,-0.088
1.004,-0.072
1.004,-0.07
1.004,-0.048
1.004,-0.048
1.004,-0.037
1.005,-0.037
1.005,-0.04
1.005,-0.04
1.006,-0.038
1.006,-0.038
1.006,-0.032
1.006,-0.03
1.006,-0.022
1.007,-0.022
1.007,-0.013
1.007,-0.013
1.008,-0.005
1.008,-0.003
1.008,0.008
1.008,0.008
1.008,0.02
1.009,0.02
1.009,0.033
1.009,0.033
1.01,0.042
1.01,0.04
1.01,0.023
1.01,0.023
1.01,-0.007
1.011,-0.007
1.011,-0.023
1.011,-0.027
1.012,-0.022
1.012,-0.02
1.012,0
1.012,0
1.012,0.017
1.013,0.017
1.013,0.033
1.013,0.035
1.014,0.068
1.014,0.068
1.014,0.095
1.014,0.092
1.014,0.04
1.015,0.16
1.015,-0.005
1.015,-0.027
1.016,0.172
1.016,0.127
1.016,-0.148
1.016,-0.135
1.016,-0.193
1.017,-0.143
1.017,-0.068
1.017,-0.067
1.018,-0.042
1.018,-0.04
1.018,-0.033
1.018,-0.033
1.018,-0.03
1.019,-0.032
1.019,-0.027
1.019,-0.028
1.02,-0.023
1.02,-0.023
1.02,-0.02
1.02,-0.022
1.02,-0.015
1.021,-0.017
1.021,-0.013
1.021,-0.015
1.022,-0.012
1.022,-0.013
1.022,-0.012
1.022,-0.012
1.022,-0.01
1.023,-0.008
1.023,-0.012
1.023,-0.01
1.024,-0.005
1.024,-0.007
1.024,-0.002
1.024,-0.003
1.024,0.002
1.025,0.002
1.025,0.01
1.025,0.012
1.026,0.02
1.026,0.02
1.026,0.025
1.026,0.025
1.026,0.022
1.027,0.022
1.027,0.007
1.027,0.007
1.028,-0.002
1.028,-0.003
1.028,0
1.028,-0.002
1.028,-0.005
1.029,-0.005
1.029,-0.008
1.029,-0.007
1.03,-0.008
1.03,-0.007
1.03,-0.012
1.03,-0.012
1.03,-0.005
1.031,-0.005
1.031,0.005
1.031,0.005
1.032,0.01
1.032,0.007
1.032,-0.027
1.032,-0.03
1.032,-0.088
1.033,-0.092
1.033,-0.068
1.033,-0.065
1.034,0.045
1.034,0.048
1.034,0.145
1.034,0.148
1.034,0.202
1.035,0.205
1.035,0.02
1.035,0.01
1.036,0.023
1.036,0.023
1.036,0.043
1.036,0.043
1.036,0.05
1.037,0.05
1.037,0.045
1.037,0.045
1.038,0.038
1.038,0.038
1.038,0.037
1.038,0.037
1.038,0.033
1.039,0.033
1.039,0.037
1.039,0.035
1.04,0.033
1.04,0.033
1.04,0.03
1.04,0.03
1.04,0.027
1.041,0.028
1.041,0.022
1.041,0.025
1.042,0.02
1.042,0.022
1.042,0.015
1.042,0.017
1.042,0.012
1.043,0.015
1.043,0.01
1.043,0.01
1.044,0.007
1.044,0.01
1.044,0.007
1.044,0.007
1.044,0.003
1.045,0.003
1.045,0.002
1.045,0.003
1.046,0.002
1.046,0.002
1.046,-0.002
1.046,0.002
1.046,0
1.047,0.002
1.047,-0.002
1.047,0
1.048,-0.01
1.048,-0.01
1.048,-0.02
1.048,-0.02
1.048,-0.023
1.049,-0.022
1.049,-0.015
1.049,-0.015
1.05,0
1.05,0.002
1.05,0.027
1.05,0.028
1.05,0.037
1.051,0.038
1.051,0.042
1.051,0.042
1.052,0.038
1.052,0.04
1.052,0.033
1.052,0.035
1.052,0.032
1.053,0.033
1.053,0.028
1.053,0.028
1.054,0.025
1.054,0.027
1.054,0.022
1.054,0.022
1.054,0.025
1.055,0.025
1.055,0.028
1.055,0.028
1.056,0.027
1.056,0.027
1.056,0.028
1.056,0.028
1.056,0.027
1.057,0.027
1.057,0.017
1.057,0.017
1.058,0.008
1.058,0.007
1.058,-0.007
1.058,-0.007
1.058,-0.018
1.059,-0.02
1.059,-0.028
1.059,-0.03
1.06,-0.033
1.06,-0.033
1.06,-0.037
1.06,-0.035
1.06,-0.03
1.061,-0.03
1.061,-0.027
1.061,-0.027
1.062,-0.023
1.062,-0.025
1.062,-0.022
1.062,-0.023
1.062,-0.02
1.063,-0.022
1.063,-0.018
1.063,-0.02
1.063,-0.025
1.064,-0.025
1.064,-0.033
1.064,-0.032
1.065,-0.035
1.065,-0.032
1.065,-0.03
1.065,-0.03
1.065,-0.023
1.066,-0.025
1.066,-0.028
1.066,-0.03
1.067,-0.027
1.067,-0.028
1.067,-0.023
1.067,-0.025
1.067,-0.02
1.068,-0.02
1.068,-0.017
1.068,-0.018
1.069,-0.017
1.069,-0.02
1.069,-0.025
1.069,-0.025
1.069,-0.028
1.07,-0.027
1.07,-0.023
1.07,-0.025
1.071,-0.018
1.071,-0.018
1.071,-0.012
1.071,-0.012
1.071,-0.01
1.072,-0.012
1.072,-0.005
1.072,-0.008
1.073,-0.005
1.073,-0.008
1.073,-0.005
1.073,-0.007
1.073,-0.002
1.074,-0.002
1.074,0.002
1.074,0
1.075,-0.002
1.075,0
1.075,-0.005
1.075,-0.005
1.075,-0.008
1.076,-0.008
1.076,-0.013
1.076,-0.013
1.077,-0.012
1.077,-0.012
1.077,-0.015
1.077,-0.013
1.077,-0.017
1.078,-0.017
1.078,-0.022
1.078,-0.022
1.079,-0.028
1.079,-0.028
1.079,-0.032
1.079,-0.03
1.079,-0.027
1.08,-0.028
1.08,-0.027
1.08,-0.027
1.081,-0.023
1.081,-0.025
1.081,-0.028
1.081,-0.028
1.081,-0.033
1.082,-0.032
1.082,-0.03
1.082,-0.03
1.083,-0.035
1.083,-0.035
1.083,-0.043
1.083,-0.043
1.083,-0.058
1.084,-0.058
1.084,-0.067
1.084,-0.062
1.085,-0.073
1.085,-0.077
1.085,-0.137
1.085,-0.135
1.085,-0.068
1.086,-0.065
1.086,-0.017
1.086,-0.017
1.087,-0.012
1.087,-0.01
1.087,0.043
1.087,0.045
1.087,0.055
1.088,0.043
1.088,0.012
1.088,0.012
1.089,0.003
1.089,0.007
1.089,-0.005
1.089,-0.005
1.089,-0.022
1.09,-0.022
1.09,-0.043
1.09,-0.043
1.091,-0.055
1.091,-0.055
1.091,-0.065
1.091,-0.065
1.091,-0.077
1.092,-0.077
1.092,-0.072
1.092,-0.072
1.093,-0.062
1.093,-0.062
1.093,-0.048
1.093,-0.048
1.093,-0.042
1.094,-0.042
1.094,-0.045
1.094,-0.042
1.095,-0.04
1.095,-0.04
1.095,-0.042
1.095,-0.04
1.095,-0.045
1.096,-0.043
1.096,-0.047
1.096,-0.047
1.097,-0.055
1.097,-0.055
1.097,-0.062
1.097,-0.063
1.097,-0.075
1.098,-0.075
1.098,-0.083
1.098,-0.083
1.099,-0.08
1.099,-0.08
1.099,-0.073
1.099,-0.073
1.099,-0.07
1.1,-0.07
1.1,-0.06
1.1,-0.06
1.101,-0.043
1.101,-0.042
1.101,-0.018
1.101,-0.018
1.101,0.002
1.102,0.005
1.102,-0.002
1.102,-0.002
1.103,0
1.103,0
1.103,-0.007
1.103,-0.007
1.103,-0.017
1.104,-0.017
1.104,-0.04
1.104,-0.04
1.105,-0.048
1.105,-0.048
1.105,-0.04
1.105,-0.04
1.105,-0.022
1.106,-0.022
1.106,-0.007
1.106,-0.007
1.107,0.008
1.107,0.008
1.107,0.035
1.107,0.037
1.107,0.063
1.108,0.065
1.108,0.002
1.108,-0.028
1.109,0.175
1.109,0.178
1.109,-0.002
1.109,0.228
1.109,-0.157
1.11,-0.152
1.11,-0.232
1.11,-0.223
1.111,-0.118
1.111,-0.115
1.111,-0.052
1.111,-0.05
1.111,-0.02
1.112,-0.017
1.112,-0.023
1.112,-0.023
1.113,-0.048
1.113,-0.048
1.113,-0.07
1.113,-0.07
1.113,-0.08
1.114,-0.073
1.114,-0.052
1.114,-0.05
1.115,-0.032
1.115,-0.032
1.115,-0.022
1.115,-0.022
1.115,-0.062
1.116,-0.065
1.116,-0.138
1.116,-0.142
1.117,-0.117
1.117,-0.113
1.117,0.018
1.117,0.023
1.117,0.133
1.118,0.137
1.118,0.202
1.118,0.192
1.119,0.213
1.119,0.208
1.119,-0.073
1.119,-0.12
1.119,-0.04
1.12,-0.037
1.12,0.018
1.12,0.02
1.121,0.07
1.121,0.078
1.121,0.068
1.121,0.067
1.121,0.017
1.122,0.015
1.122,-0.037
1.122,-0.038
1.123,-0.077
1.123,-0.078
1.123,-0.097
1.123,-0.097
1.123,-0.105
1.124,-0.103
1.124,-0.098
1.124,-0.098
1.125,-0.087
1.125,-0.085
1.125,-0.078
1.125,-0.078
1.125,-0.075
1.126,-0.075
1.126,-0.068
1.126,-0.067
1.127,-0.062
1.127,-0.062
1.127,-0.05
1.127,-0.05
1.127,-0.043
1.128,-0.045
1.128,-0.05
1.128,-0.052
1.129,-0.067
1.129,-0.068
1.129,-0.073
1.129,-0.073
1.129,-0.077
1.13,-0.077
1.13,-0.08
1.13,-0.078
1.131,-0.068
1.131,-0.068
1.131,-0.058
1.131,-0.058
1.131,-0.05
1.132,-0.05
1.132,-0.042
1.132,-0.042
1.133,-0.033
1.133,-0.033
1.133,-0.023
1.133,-0.023
1.133,-0.013
1.134,-0.013
1.134,-0.005
1.134,-0.005
1.135,0.007
1.135,0.007
1.135,0.013
1.135,0.015
1.135,0.047
1.136,0.05
1.136,0.113
1.136,0.108
1.137,-0.075
1.137,-0.072
1.137,-0.033
1.137,-0.03
1.137,-0.002
1.138,0
1.138,0.018
1.138,0.017
1.139,0.02
1.139,0.02
1.139,0.017
1.139,0.015
1.139,0.003
1.14,0.003
1.14,-0.003
1.14,-0.002
1.141,-0.007
1.141,-0.005
1.141,0
1.141,0
1.141,0.022
1.142,0.023
1.142,0.017
1.142,0.015
1.143,0.005
1.143,0.003
1.143,-0.012
1.143,-0.013
1.143,-0.023
1.144,-0.025
1.144,-0.032
1.144,-0.032
1.145,-0.033
1.145,-0.033
1.145,-0.032
1.145,-0.032
1.145,-0.035
1.146,-0.032
1.146,-0.035
1.146,-0.033
1.147,-0.035
1.147,-0.033
1.147,-0.028
1.147,-0.028
1.147,-0.017
1.148,-0.017
1.148,-0.007
1.148,-0.005
1.149,0.003
1.149,0.005
1.149,0.002
1.149,0.002
1.149,-0.005
1.15,-0.003
1.15,-0.005
1.15,-0.003
1.151,0.002
1.151,0
1.151,0.005
1.151,0.003
1.151,0.007
1.152,0.003
1.152,0.007
1.152,0.002
1.153,0.005
1.153,0.003
1.153,0.008
1.153,0.005
1.153,0.008
1.154,0.005
1.154,0.008
1.154,0.005
1.155,0.007
1.155,0.005
1.155,0.003
1.155,0.003
1.155,-0.003
1.156,-0.003
1.156,-0.012
1.156,-0.01
1.157,-0.015
1.157,-0.013
1.157,-0.022
1.157,-0.02
1.157,-0.025
1.158,-0.023
1.158,-0.027
1.158,-0.027
1.159,-0.032
1.159,-0.032
1.159,-0.037
1.159,-0.037
1.159,-0.032
1.16,-0.032
1.16,-0.027
1.16,-0.028
1.161,-0.023
1.161,-0.023
1.161,-0.015
1.161,-0.018
1.161,-0.013
1.162,-0.015
1.162,-0.012
1.162,-0.013
1.163,-0.008
1.163,-0.008
1.163,-0.012
1.163,-0.012
1.163,-0.015
1.164,-0.012
1.164,-0.018
1.164,-0.018
1.165,-0.02
1.165,-0.022
1.165,-0.027
1.165,-0.025
1.165,-0.03
1.166,-0.03
1.166,-0.035
1.166,-0.037
1.167,-0.033
1.167,-0.035
1.167,-0.033
1.167,-0.033
1.167,-0.037
1.168,-0.035
1.168,-0.038
1.168,-0.038
1.169,-0.042
1.169,-0.042
1.169,-0.043
1.169,-0.043
1.169,-0.042
1.17,-0.042
1.17,-0.038
1.17,-0.038
1.171,-0.035
1.171,-0.037
1.171,-0.038
1.171,-0.038
1.171,-0.043
1.172,-0.043
1.172,-0.047
1.172,-0.047
1.173,-0.043
1.173,-0.047
1.173,-0.043
1.173,-0.045
1.173,-0.042
1.174,-0.04
1.174,-0.042
1.174,-0.04
1.175,-0.038
1.175,-0.038
1.175,-0.043
1.175,-0.04
1.175,-0.043
1.176,-0.043
1.176,-0.045
1.176,-0.043
1.177,-0.042
1.177,-0.042
1.177,-0.032
1.177,-0.032
1.177,-0.023
1.178,-0.027
1.178,-0.023
1.178,-0.022
1.179,-0.025
1.179,-0.025
1.179,-0.033
1.179,-0.035
1.179,-0.042
1.18,-0.04
1.18,-0.045
1.18,-0.045
1.181,-0.047
1.181,-0.048
1.181,-0.043
1.181,-0.042
1.181,-0.048
1.182,-0.048
1.182,-0.067
1.182,-0.068
1.183,-0.108
1.183,-0.108
1.183,-0.12
1.183,-0.11
1.183,-0.02
1.184,-0.015
1.184,0.022
1.184,0.022
1.185,0.005
1.185,0
1.185,0.007
1.185,0.007
1.185,0.015
1.186,0.013
1.186,0.017
1.186,0.017
1.187,0.022
1.187,0.018
1.187,0.017
1.187,0.018
1.188,0.023
1.188,0.025
1.188,0.028
1.188,0.028
1.188,0.032
1.189,0.032
1.189,0.025
1.189,0.025
1.19,0.018
1.19,0.017
1.19,0.005
1.19,0.005
1.19,-0.007
1.191,-0.008
1.191,-0.017
1.191,-0.017
1.192,-0.018
1.192,-0.018
1.192,-0.008
1.192,-0.008
1.192,0.002
1.193,0.002
1.193,0.005
1.193,0.003
1.194,0.007
1.194,0.007
1.194,0.013
1.194,0.013
1.194,0.025
1.195,0.025
1.195,0.037
1.195,0.038
1.196,0.055
1.196,0.057
1.196,0.085
1.196,0.085
1.196,0.115
1.197,0.133
1.197,0.072
1.197,0.055
1.198,0.287
1.198,0.022
1.198,0.215
1.198,0.328
1.198,-0.148
1.199,-0.132
1.199,-0.218
1.199,-0.21
1.2,-0.118
1.2,-0.117
1.2,-0.073
1.2,-0.073
1.2,-0.068
1.201,-0.068
1.201,-0.055
1.201,-0.055
1.202,-0.088
1.202,-0.092
1.202,-0.145
1.202,-0.133
1.202,-0.018
1.203,-0.015
1.203,0.073
1.203,0.075
1.204,0.092
1.204,0.092
1.204,0.087
1.204,0.087
1.204,0.067
1.205,0.067
1.205,0.042
1.205,0.04
1.206,-0.027
1.206,-0.032
1.206,-0.102
1.206,-0.102
1.206,-0.028
1.207,-0.023
1.207,0.067
1.207,0.07
1.208,0.128
1.208,0.13
1.208,0.117
1.208,0.117
1.208,0.09
1.209,0.088
1.209,0.068
1.209,0.068
1.21,0.072
1.21,0.072
1.21,0.077
1.21,0.078
1.21,0.075
1.211,0.077
1.211,0.068
1.211,0.068
1.212,0.05
1.212,0.048
1.212,0.035
1.212,0.033
1.212,0.027
1.213,0.027
1.213,0.033
1.213,0.033
1.214,0.042
1.214,0.043
1.214,0.048
1.214,0.05
1.214,0.052
1.215,0.052
1.215,0.047
1.215,0.048
1.216,0.052
1.216,0.05
1.216,0.057
1.216,0.057
1.216,0.068
1.217,0.067
1.217,0.072
1.217,0.072
1.218,0.065
1.218,0.065
1.218,0.058
1.218,0.058
1.218,0.06
1.219,0.06
1.219,0.063
1.219,0.063
1.22,0.062
1.22,0.063
1.22,0.062
1.22,0.062
1.22,0.063
1.221,0.065
1.221,0.062
1.221,0.063
1.222,0.06
1.222,0.062
1.222,0.065
1.222,0.065
1.222,0.068
1.223,0.068
1.223,0.065
1.223,0.063
1.224,0.058
1.224,0.058
1.224,0.052
1.224,0.053
1.224,0.05
1.225,0.05
1.225,0.048
1.225,0.047
1.226,0.048
1.226,0.048
1.226,0.045
1.226,0.048
1.226,0.052
1.227,0.052
1.227,0.055
1.227,0.055
1.228,0.053
1.228,0.052
1.228,0.055
1.228,0.055
1.228,0.052
1.229,0.053
1.229,0.05
1.229,0.052
1.23,0.045
1.23,0.045
1.23,0.035
1.23,0.035
1.23,0.03
1.231,0.028
1.231,0.03
1.231,0.028
1.232,0.032
1.232,0.032
1.232,0.03
1.232,0.03
1.232,0.033
1.233,0.035
1.233,0.032
1.233,0.032
1.234,0.037
1.234,0.033
1.234,0.038
1.234,0.038
1.234,0.04
1.235,0.038
1.235,0.033
1.235,0.032
1.236,0.043
1.236,0.045
1.236,0.095
1.236,0.098
1.236,0.138
1.237,0.092
1.237,-0.072
1.237,-0.067
1.238,-0.033
1.238,-0.032
1.238,-0.005
1.238,-0.005
1.238,0.02
1.239,0.022
1.239,0.055
1.239,0.057
1.24,0.113
1.24,0.115
1.24,0.202
1.24,0.195
1.24,0.248
1.241,0.242
1.241,0.017
1.241,0.022
1.242,0.162
1.242,0.143
1.242,0.175
1.242,0.18
1.242,0.227
1.243,0.228
1.243,0.2
1.243,0.197
1.244,0.113
1.244,0.11
1.244,0.02
1.244,0.017
1.244,-0.053
1.245,-0.055
1.245,-0.092
1.245,-0.093
1.246,-0.112
1.246,-0.113
1.246,-0.118
1.246,-0.12
1.246,-0.123
1.247,-0.123
1.247,-0.13
1.247,-0.13
1.248,-0.123
1.248,-0.123
1.248,-0.12
1.248,-0.118
1.248,-0.113
1.249,-0.112
1.249,-0.105
1.249,-0.105
1.25,-0.093
1.25,-0.093
1.25,-0.083
1.25,-0.083
1.25,-0.07
1.251,0.1
1.251,-0.068
1.251,-0.06
1.252,-0.06
1.252,-0.047
1.252,-0.047
1.252,-0.038
1.252,-0.038
1.253,-0.032
1.253,-0.032
1.253,-0.02
1.254,-0.02
1.254,-0.01
1.254,-0.012
1.254,-0.007
1.254,-0.007
1.255,-0.003
1.255,-0.003
1.255,-0.01
1.256,-0.012
1.256,-0.015
1.256,-0.017
1.256,-0.012
1.256,-0.013
1.257,-0.008
1.257,-0.01
1.257,-0.007
1.258,-0.008
1.258,-0.015
1.258,-0.013
1.258,-0.018
1.258,-0.017
1.259,-0.022
1.259,-0.022
1.259,-0.027
1.26,-0.028
1.26,-0.035
1.26,-0.035
1.26,-0.043
1.26,-0.043
1.261,-0.052
1.261,-0.05
1.261,-0.053
1.262,-0.05
1.262,-0.053
1.262,-0.05
1.262,-0.043
1.262,-0.043
1.263,-0.037
1.263,-0.037
1.263,-0.028
1.264,-0.028
1.264,-0.037
1.264,-0.037
1.264,-0.045
1.264,-0.047
1.265,-0.053
1.265,-0.052
1.265,-0.057
1.266,-0.057
1.266,-0.052
1.266,-0.052
1.266,-0.038
1.266,-0.037
1.267,-0.02
1.267,-0.02
1.267,0
1.268,0
1.268,0.005
1.268,0.002
1.268,-0.032
1.268,-0.033
1.269,-0.085
1.269,-0.095
1.269,-0.068
1.27,-0.063
1.27,0.007
1.27,0.013
1.27,0.003
1.27,0.002
1.271,-0.018
1.271,-0.018
1.271,-0.015
1.272,-0.017
1.272,-0.028
1.272,-0.03
1.272,-0.038
1.272,-0.037
1.273,-0.047
1.273,-0.045
1.273,-0.05
1.274,-0.048
1.274,-0.052
1.274,-0.052
1.274,-0.055
1.274,-0.055
1.275,-0.057
1.275,-0.058
1.275,-0.055
1.276,-0.055
1.276,-0.052
1.276,-0.052
1.276,-0.055
1.276,-0.052
1.277,-0.053
1.277,-0.052
1.277,-0.05
1.278,-0.052
1.278,-0.053
1.278,-0.055
1.278,-0.06
1.278,-0.06
1.279,-0.063
1.279,-0.063
1.279,-0.072
1.28,-0.07
1.28,-0.075
1.28,-0.075
1.28,-0.082
1.28,-0.083
1.281,-0.088
1.281,-0.088
1.281,-0.095
1.282,-0.093
1.282,-0.09
1.282,-0.09
1.282,-0.093
1.282,-0.092
1.283,-0.097
1.283,-0.095
1.283,-0.093
1.284,-0.092
1.284,-0.098
1.284,-0.098
1.284,-0.093
1.284,-0.097
1.285,-0.092
1.285,-0.092
1.285,-0.085
1.286,-0.087
1.286,-0.078
1.286,-0.077
1.286,-0.052
1.286,-0.05
1.287,-0.007
1.287,-0.063
1.287,0.133
1.288,0.227
1.288,-0.035
1.288,0.248
1.288,-0.212
1.288,-0.225
1.289,-0.332
1.289,-0.333
1.289,-0.255
1.29,-0.252
1.29,-0.192
1.29,-0.182
1.29,-0.195
1.29,-0.197
1.291,-0.267
1.291,-0.27
1.291,-0.317
1.292,-0.31
1.292,-0.213
1.292,-0.207
1.292,-0.107
1.292,-0.103
1.293,-0.043
1.293,-0.042
1.293,-0.06
1.294,-0.062
1.294,-0.095
1.294,-0.097
1.294,-0.112
1.294,-0.112
1.295,-0.115
1.295,-0.115
1.295,-0.113
1.296,-0.113
1.296,-0.118
1.296,-0.12
1.296,-0.117
1.296,-0.118
1.297,-0.123
1.297,-0.122
1.297,-0.118
1.298,-0.118
1.298,-0.115
1.298,-0.115
1.298,-0.108
1.298,-0.11
1.299,-0.102
1.299,-0.102
1.299,-0.087
1.3,-0.085
1.3,-0.08
1.3,-0.08
1.3,-0.085
1.3,-0.085
1.301,-0.087
1.301,-0.083
1.301,-0.085
1.302,-0.083
1.302,-0.092
1.302,-0.09
1.302,-0.098
1.302,-0.098
1.303,-0.103
1.303,-0.1
1.303,-0.103
1.304,-0.105
1.304,-0.102
1.304,-0.102
1.304,-0.097
1.304,-0.095
1.305,-0.098
1.305,-0.097
1.305,-0.102
1.306,-0.1
1.306,-0.105
1.306,-0.1
1.306,-0.127
1.306,-0.128
1.307,-0.217
1.307,-0.217
1.307,-0.133
1.308,-0.127
1.308,-0.022
1.308,-0.018
1.308,0.007
1.308,0.007
1.309,-0.012
1.309,-0.012
1.309,-0.032
1.31,-0.032
1.31,-0.043
1.31,-0.043
1.31,-0.048
1.31,-0.048
1.311,-0.052
1.311,-0.052
1.311,-0.055
1.312,-0.055
1.312,-0.058
1.312,-0.058
1.312,-0.053
1.312,-0.057
1.313,-0.053
1.313,-0.053
1.313,-0.045
1.313,-0.043
1.314,-0.037
1.314,-0.037
1.314,-0.035
1.315,-0.038
1.315,-0.052
1.315,-0.052
1.315,-0.065
1.315,-0.065
1.316,-0.073
1.316,-0.075
1.316,-0.072
1.317,-0.072
1.317,-0.057
1.317,-0.057
1.317,-0.04
1.317,-0.038
1.318,-0.02
1.318,-0.018
1.318,-0.005
1.319,-0.005
1.319,0.002
1.319,0
1.319,0.003
1.319,0.002
1.32,0.005
1.32,0.003
1.32,0.012
1.321,0.013
1.321,0.025
1.321,0.022
1.321,0.025
1.321,0.022
1.322,0.012
1.322,0.01
1.322,-0.007
1.323,-0.008
1.323,-0.02
1.323,-0.02
1.323,-0.028
1.323,-0.028
1.324,-0.023
1.324,-0.023
1.324,-0.017
1.325,-0.015
1.325,-0.012
1.325,-0.01
1.325,0.005
1.325,0.005
1.326,0.017
1.326,0.018
1.326,0.022
1.327,0.022
1.327,0.02
1.327,0.02
1.327,0.017
1.327,0.015
1.328,0.018
1.328,0.017
1.328,0.023
1.329,0.023
1.329,0.03
1.329,0.03
1.329,0.032
1.329,0.032
1.33,0.027
1.33,0.027
1.33,0.023
1.331,0.025
1.331,0.028
1.331,0.028
1.331,0.03
1.331,0.032
1.332,0.028
1.332,0.028
1.332,0.025
1.333,0.027
1.333,0.032
1.333,0.032
1.333,0.037
1.333,0.037
1.334,0.05
1.334,0.05
1.334,0.065
1.335,0.063
1.335,0.068
1.335,0.067
1.335,0.063
1.335,0.063
1.336,0.067
1.336,0.065
1.336,0.07
1.337,0.07
1.337,0.082
1.337,0.083
1.337,0.093
1.337,0.093
1.338,0.097
1.338,0.095
1.338,0.093
1.339,0.093
1.339,0.088
1.339,0.09
1.339,0.085
1.339,0.085
1.34,0.082
1.34,0.082
1.34,0.08
1.341,0.078
1.341,0.083
1.341,0.082
1.341,0.08
1.341,0.078
1.342,0.075
1.342,0.077
1.342,0.073
1.343,0.073
1.343,0.08
1.343,0.08
1.343,0.092
1.343,0.092
1.344,0.097
1.344,0.095
1.344,0.098
1.345,0.095
1.345,0.102
1.345,0.103
1.345,0.12
1.345,0.122
1.346,0.175
1.346,0.217
1.346,0.102
1.347,0.083
1.347,0.008
1.347,0.017
1.347,0.053
1.347,0.055
1.348,0.078
1.348,0.078
1.348,0.088
1.349,0.09
1.349,0.095
1.349,0.093
1.349,0.1
1.349,0.098
1.35,0.108
1.35,0.11
1.35,0.107
1.351,0.112
1.351,0.12
1.351,0.12
1.351,0.123
1.351,0.12
1.352,0.123
1.352,0.122
1.352,0.12
1.353,0.122
1.353,0.128
1.353,0.128
1.353,0.138
1.353,0.138
1.354,0.157
1.354,0.157
1.354,0.178
1.355,0.18
1.355,0.22
1.355,0.222
1.355,0.278
1.355,0.26
1.356,0.313
1.356,0.19
1.356,0.34
1.357,0.352
1.357,0.125
1.357,0.182
1.357,0.27
1.357,0.272
1.358,0.293
1.358,0.28
1.358,0.212
1.359,0.208
1.359,0.113
1.359,0.11
1.359,0.035
1.359,0.032
1.36,-0.002
1.36,-0.002
1.36,-0.013
1.361,-0.013
1.361,-0.022
1.361,-0.02
1.361,-0.015
1.361,-0.017
1.362,-0.01
1.362,-0.01
1.362,-0.032
1.363,-0.035
1.363,-0.088
1.363,-0.09
1.363,-0.113
1.363,-0.105
1.364,-0.025
1.364,-0.022
1.364,0.003
1.365,0.005
1.365,0.003
1.365,0.002
1.365,0.027
1.365,0.027
1.366,0.042
1.366,0.037
1.366,0.042
1.367,0.042
1.367,0.05
1.367,0.05
1.367,0.057
1.367,0.057
1.368,0.063
1.368,0.062
1.368,0.057
1.369,0.057
1.369,0.052
1.369,0.053
1.369,0.055
1.369,0.057
1.37,0.053
1.37,0.053
1.37,0.04
1.371,0.04
1.371,0.03
1.371,0.033
1.371,0.037
1.371,0.037
1.372,0.04
1.372,0.04
1.372,0.045
1.373,0.045
1.373,0.038
1.373,0.037
1.373,0.027
1.373,0.027
1.374,0.023
1.374,0.027
1.374,0.042
1.375,0.042
1.375,0.06
1.375,0.062
1.375,0.08
1.375,0.08
1.376,0.095
1.376,0.095
1.376,0.108
1.377,0.108
1.377,0.117
1.377,0.118
1.377,0.132
1.377,0.133
1.378,0.142
1.378,0.133
1.378,0.062
1.379,0.053
1.379,-0.108
1.379,-0.107
1.379,0.418
1.379,0.19
1.38,0.46
1.38,0.442
1.38,-0.02
1.381,0
1.381,-0.098
1.381,-0.088
1.381,-0.032
1.381,-0.032
1.382,-0.01
1.382,-0.01
1.382,-0.002
1.383,-0.002
1.383,0.005
1.383,0.003
1.383,0.012
1.383,0.012
1.384,0.017
1.384,0.017
1.384,0.022
1.385,0.022
1.385,0.023
1.385,0.023
1.385,0.027
1.385,0.027
1.386,0.025
1.386,0.027
1.386,0.03
1.387,0.03
1.387,0.027
1.387,0.027
1.387,0.032
1.387,0.03
1.388,0.027
1.388,0.028
1.388,0.022
1.389,0.022
1.389,0.023
1.389,0.022
1.389,0.025
1.389,0.023
1.39,0.027
1.39,0.025
1.39,0.028
1.391,0.028
1.391,0.03
1.391,0.028
1.391,0.027
1.391,0.027
1.392,0.023
1.392,0.023
1.392,0.027
1.393,0.025
1.393,0.028
1.393,0.027
1.393,0.03
1.393,0.028
1.394,0.032
1.394,0.032
1.394,0.037
1.395,0.037
1.395,0.033
1.395,0.035
1.395,0.033
1.395,0.035
1.396,0.032
1.396,0.032
1.396,0.033
1.397,0.033
1.397,0.035
1.397,0.032
1.397,0.038
1.397,0.038
1.398,0.035
1.398,0.037
1.398,0.033
1.399,0.033
1.399,0.03
1.399,0.032
1.399,0.028
1.399,0.03
1.4,0.023
1.4,0.023
1.4,0.017
1.401,0.017
1.401,0.005
1.401,0.005
1.401,0
1.401,0.002
1.402,0.003
1.402,0.003
1.402,0
1.403,0
1.403,-0.002
1.403,-0.003
1.403,0.002
1.403,0.002
1.404,-0.003
1.404,-0.003
1.404,0
1.405,-0.002
1.405,0
1.405,0
1.405,0.008
1.405,0.007
1.406,0.017
1.406,0.017
1.406,0.03
1.407,0.03
1.407,0.04
1.407,0.038
1.407,0.033
1.407,0.033
1.408,0.03
1.408,0.03
1.408,0.033
1.409,0.033
1.409,0.032
1.409,0.03
1.409,0.033
1.409,0.032
1.41,0.035
1.41,0.035
1.41,0.043
1.411,0.043
1.411,0.05
1.411,0.052
1.411,0.047
1.411,0.047
1.412,0.028
1.412,0.028
1.412,0.003
1.413,0.003
1.413,-0.012
1.413,-0.012
1.413,-0.015
1.413,-0.013
1.414,-0.003
1.414,-0.003
1.414,0.003
1.415,0.002
1.415,0.007
1.415,0.008
1.415,0.003
1.415,0.005
1.416,0
1.416,0
1.416,-0.01
1.417,-0.003
1.417,-0.012
1.417,-0.012
1.417,-0.083
1.417,-0.087
1.418,-0.123
1.418,-0.095
1.418,0.017
1.419,0.022
1.419,0.087
1.419,0.09
1.419,0.085
1.419,0.083
1.42,0.07
1.42,0.07
1.42,0.06
1.421,0.058
1.421,0.047
1.421,0.047
1.421,0.025
1.421,0.025
1.422,0.007
1.422,0.005
1.422,-0.005
1.423,-0.008
1.423,-0.003
1.423,-0.003
1.423,0.012
1.423,0.012
1.424,0.025
1.424,0.025
1.424,0.03
1.425,0.03
1.425,0.027
1.425,0.027
1.425,0.033
1.425,0.032
1.426,0.038
1.426,0.037
1.426,0.04
1.427,0.037
1.427,0.042
1.427,0.043
1.427,0.04
1.427,0.04
1.428,0.025
1.428,0.023
1.428,0
1.429,0
1.429,-0.013
1.429,-0.015
1.429,-0.013
1.429,-0.015
1.43,0
1.43,0.002
1.43,0.023
1.431,0.023
1.431,0.028
1.431,0.027
1.431,0.02
1.431,0.02
1.432,0.015
1.432,0.015
1.432,0.012
1.433,0.012
1.433,0.013
1.433,0.012
1.433,0.008
1.433,0.005
1.434,0.008
1.434,0.008
1.434,0.005
1.435,0.007
1.435,0.008
1.435,0.008
1.435,0.012
1.435,0.008
1.436,0.01
1.436,0.008
1.436,0.01
1.437,0.01
1.437,0.013
1.437,0.013
1.437,0.015
1.438,0.015
1.438,0.01
1.438,0.012
1.438,0.015
1.438,0.015
1.439,0.022
1.439,0.02
1.439,0.025
1.44,0.023
1.44,0.017
1.44,0.017
1.44,0.008
1.44,0.007
1.441,0
1.441,0
1.441,0.003
1.442,0.003
1.442,0.017
1.442,0.017
1.442,0.025
1.442,0.025
1.443,0.032
1.443,0.032
1.443,0.042
1.444,0.042
1.444,0.092
1.444,0.115
1.444,-0.077
1.444,-0.082
1.445,-0.057
1.445,-0.053
1.445,-0.015
1.446,-0.015
1.446,0.007
1.446,0.007
1.446,0.012
1.446,0.013
1.447,0.012
1.447,0.012
1.447,0.008
1.448,0.008
1.448,0.012
1.448,0.01
1.448,0.013
1.448,0.013
1.449,0.012
1.449,0.012
1.449,0.008
1.45,0.008
1.45,-0.005
1.45,-0.005
1.45,-0.01
1.45,-0.01
1.451,-0.005
1.451,-0.003
1.451,0.007
1.452,0.007
1.452,0.018
1.452,0.018
1.452,0.012
1.452,0.012
1.453,0.01
1.453,0.008
1.453,0
1.454,0.002
1.454,-0.003
1.454,-0.003
1.454,-0.002
1.454,-0.005
1.455,-0.01
1.455,-0.008
1.455,-0.015
1.456,-0.013
1.456,-0.015
1.456,-0.015
1.456,-0.013
1.456,-0.015
1.457,-0.017
1.457,-0.015
1.457,-0.018
1.458,-0.02
1.458,-0.017
1.458,-0.017
1.458,-0.02
1.458,-0.02
1.459,-0.017
1.459,-0.018
1.459,-0.012
1.46,-0.01
1.46,-0.005
1.46,-0.005
1.46,-0.025
1.46,-0.025
1.461,-0.072
1.461,-0.073
1.461,-0.093
1.462,-0.085
1.462,-0.003
1.462,0.002
1.462,0.03
1.462,0.027
1.463,0.003
1.463,0.002
1.463,0.012
1.464,0.013
1.464,0.027
1.464,0.027
1.464,0.018
1.464,0.022
1.465,0.027
1.465,0.028
1.465,0.02
1.466,0.018
1.466,-0.028
1.466,-0.032
1.466,-0.105
1.466,-0.105
1.467,-0.035
1.467,-0.03
1.467,0.122
1.468,0.128
1.468,0.277
1.468,0.27
1.468,0.322
1.468,0.31
1.469,0.097
1.469,0.108
1.469,0.295
1.47,0.243
1.47,0.278
1.47,0.28
1.47,0.305
1.47,0.305
1.471,0.15
1.471,0.14
1.471,0.437
1.472,0.273
1.472,0.02
1.472,0.282
1.472,-0.262
1.472,-0.265
1.473,-0.397
1.473,-0.383
1.473,-0.293
1.474,-0.292
1.474,-0.238
1.474,-0.237
1.474,-0.202
1.474,-0.202
1.475,-0.175
1.475,-0.175
1.475,-0.155
1.476,-0.155
1.476,-0.135
1.476,-0.133
1.476,-0.113
1.476,-0.113
1.477,-0.1
1.477,-0.1
1.477,-0.093
1.478,-0.093
1.478,-0.082
1.478,-0.083
1.478,-0.078
1.478,-0.082
1.479,-0.088
1.479,-0.088
1.479,-0.095
1.48,-0.095
1.48,-0.087
1.48,-0.087
1.48,-0.082
1.48,-0.082
1.481,-0.068
1.481,-0.068
1.481,-0.053
1.482,-0.053
1.482,-0.042
1.482,-0.042
1.482,-0.035
1.482,-0.035
1.483,-0.037
1.483,-0.035
1.483,-0.032
1.484,-0.032
1.484,-0.03
1.484,-0.03
1.484,-0.025
1.484,-0.027
1.485,-0.023
1.485,-0.022
1.485,-0.015
1.486,-0.015
1.486,-0.012
1.486,-0.012
1.486,-0.013
1.486,-0.013
1.487,-0.017
1.487,-0.015
1.487,-0.017
1.488,-0.015
1.488,-0.007
1.488,-0.008
1.488,0.002
1.488,0.002
1.489,0.005
1.489,0.005
1.489,0.007
1.49,0.007
1.49,0.003
1.49,0.003
1.49,0
1.49,0
1.491,0.005
1.491,0.003
1.491,0.012
1.492,0.012
1.492,0.017
1.492,0.018
1.492,0.015
1.492,0.015
1.493,0.017
1.493,0.017
1.493,0.008
1.494,0.008
1.494,0.002
1.494,0.002
1.494,-0.005
1.494,-0.005
1.495,-0.003
1.495,-0.003
1.495,-0.007
1.496,-0.005
1.496,-0.012
1.496,-0.012
1.496,-0.01
1.496,-0.01
1.497,-0.015
1.497,-0.013
1.497,-0.017
1.498,-0.015
1.498,-0.022
1.498,-0.02
1.498,-0.01
1.498,-0.01
1.499,-0.002
1.499,-0.002
1.499,0.002
1.5,0.002
1.5,-0.002
1.5,-0.003
1.5,-0.008
1.5,-0.012
1.501,-0.007
1.501,0.1
1.501,-0.007
1.502,-0.01
1.502,-0.008
1.502,-0.013
1.502,-0.013
1.502,-0.023
1.503,-0.023
1.503,-0.033
1.503,-0.033
1.504,-0.038
1.504,-0.038
1.504,-0.042
1.504,-0.043
1.504,-0.038
1.505,-0.04
1.505,-0.028
1.505,-0.027
1.506,-0.012
1.506,-0.012
1.506,0.008
1.506,0.008
1.506,0.017
1.507,0.012
1.507,0.015
1.507,0.017
1.508,0.03
1.508,0.03
1.508,0.048
1.508,0.05
1.508,0.058
1.509,0.057
1.509,0.04
1.509,0.038
1.51,0.008
1.51,0.007
1.51,-0.013
1.51,-0.015
1.51,-0.018
1.511,-0.018
1.511,-0.017
1.511,-0.015
1.512,-0.005
1.512,-0.005
1.512,0
1.512,-0.002
1.512,0.01
1.513,0.01
1.513,0.02
1.513,0.02
1.514,0.03
1.514,0.027
1.514,-0.035
1.514,-0.04
1.514,-0.093
1.515,-0.075
1.515,0.033
1.515,0.037
1.516,0.098
1.516,0.1
1.516,0.087
1.516,0.085
1.516,0.062
1.517,0.06
1.517,0.043
1.517,0.042
1.518,0.035
1.518,0.035
1.518,0.033
1.518,0.037
1.518,0.033
1.519,0.032
1.519,0.028
1.519,0.028
1.52,0.02
1.52,0.018
1.52,0.015
1.52,0.015
1.52,0.01
1.521,0.01
1.521,0.013
1.521,0.015
1.522,0.022
1.522,0.023
1.522,0.03
1.522,0.027
1.522,0.033
1.523,0.032
1.523,0.035
1.523,0.035
1.524,0.032
1.524,0.03
1.524,0.032
1.524,0.032
1.524,0.028
1.525,0.03
1.525,0.027
1.525,0.028
1.526,0.025
1.526,0.027
1.526,0.022
1.526,0.022
1.526,0.015
1.527,0.017
1.527,0.008
1.527,0.008
1.528,0.002
1.528,0
1.528,0.003
1.528,0.003
1.528,0
1.529,0.003
1.529,0
1.529,0.002
1.53,-0.002
1.53,-0.003
1.53,0.002
1.53,0.002
1.53,0.005
1.531,0.002
1.531,0.01
1.531,0.008
1.532,0.012
1.532,0.012
1.532,0.017
1.532,0.015
1.532,0.02
1.533,0.02
1.533,0.018
1.533,0.018
1.534,0.028
1.534,0.03
1.534,0.042
1.534,0.043
1.534,0.052
1.535,0.053
1.535,0.09
1.535,0.093
1.536,0.148
1.536,0.14
1.536,-0.058
1.536,-0.058
1.536,-0.023
1.537,-0.022
1.537,0.007
1.537,0.008
1.538,0.03
1.538,0.03
1.538,0.038
1.538,0.04
1.538,0.043
1.539,0.043
1.539,0.037
1.539,0.037
1.54,0.017
1.54,0.015
1.54,-0.003
1.54,-0.005
1.54,-0.015
1.541,-0.018
1.541,-0.013
1.541,-0.013
1.542,-0.007
1.542,-0.005
1.542,-0.002
1.542,-0.002
1.542,0.008
1.543,0.008
1.543,0.017
1.543,0.017
1.544,0.022
1.544,0.018
1.544,0.022
1.544,0.018
1.544,0.022
1.545,0.022
1.545,0.02
1.545,0.022
1.546,0.023
1.546,0.022
1.546,0.028
1.546,0.027
1.546,0.03
1.547,0.03
1.547,0.037
1.547,0.037
1.548,0.04
1.548,0.038
1.548,0.037
1.548,0.037
1.548,0.033
1.549,0.035
1.549,0.027
1.549,0.027
1.55,0.025
1.55,0.023
1.55,0.017
1.55,0.017
1.55,0.01
1.551,0.01
1.551,-0.017
1.551,-0.018
1.552,-0.095
1.552,-0.1
1.552,-0.145
1.552,-0.135
1.552,-0.035
1.553,-0.03
1.553,0.065
1.553,0.068
1.554,0.122
1.554,0.12
1.554,0.085
1.554,0.082
1.554,0.005
1.555,0.002
1.555,-0.045
1.555,-0.05
1.556,-0.005
1.556,-0.002
1.556,0.06
1.556,0.063
1.556,0.055
1.557,0.053
1.557,0.04
1.557,0.042
1.558,0.038
1.558,0.037
1.558,0.02
1.558,0.02
1.558,0.013
1.559,0.013
1.559,0.01
1.559,0.01
1.56,0.012
1.56,0.01
1.56,0.012
1.56,0.008
1.56,0.012
1.561,0.012
1.561,0.022
1.561,0.022
1.562,0.03
1.562,0.03
1.562,0.033
1.562,0.032
1.562,0.025
1.563,0.027
1.563,0.02
1.563,0.02
1.563,0.023
1.564,0.023
1.564,0.027
1.564,0.027
1.565,0.03
1.565,0.032
1.565,0.038
1.565,0.038
1.565,0.068
1.566,0.07
1.566,0.105
1.566,0.105
1.567,0.013
1.567,0.012
1.567,0.392
1.567,0.05
1.567,0.272
1.568,0.352
1.568,-0.143
1.568,-0.145
1.569,-0.248
1.569,-0.237
1.569,-0.155
1.569,-0.152
1.569,-0.105
1.57,-0.105
1.57,-0.088
1.57,-0.088
1.571,-0.075
1.571,-0.077
1.571,-0.063
1.571,-0.063
1.571,-0.048
1.572,-0.048
1.572,-0.038
1.572,-0.038
1.573,-0.03
1.573,-0.032
1.573,-0.027
1.573,-0.025
1.573,-0.027
1.574,-0.025
1.574,-0.015
1.574,-0.015
1.575,-0.01
1.575,-0.01
1.575,-0.007
1.575,-0.005
1.575,-0.008
1.576,-0.008
1.576,-0.003
1.576,-0.003
1.577,0.002
1.577,0.003
1.577,0
1.577,0
1.577,-0.003
1.578,-0.003
1.578,-0.01
1.578,-0.01
1.579,-0.017
1.579,-0.017
1.579,-0.028
1.579,-0.028
1.579,-0.037
1.58,-0.037
1.58,-0.043
1.58,-0.042
1.581,-0.043
1.581,-0.042
1.581,-0.043
1.581,-0.042
1.581,-0.045
1.582,-0.042
1.582,-0.047
1.582,-0.047
1.583,-0.048
1.583,-0.052
1.583,-0.048
1.583,-0.05
1.583,-0.048
1.584,-0.05
1.584,-0.047
1.584,-0.05
1.585,-0.045
1.585,-0.043
1.585,-0.03
1.585,-0.028
1.585,-0.022
1.586,-0.022
1.586,-0.025
1.586,-0.022
1.587,-0.023
1.587,-0.022
1.587,-0.023
1.587,-0.022
1.587,-0.007
1.588,-0.007
1.588,0.01
1.588,0.01
1.589,0.033
1.589,0.037
1.589,0.082
1.589,0.087
1.589,0.122
1.59,0.13
1.59,-0.052
1.59,-0.105
1.591,0.052
1.591,0.063
1.591,0.22
1.591,0.175
1.591,0.16
1.592,0.16
1.592,0.118
1.592,0.117
1.593,0.032
1.593,0.027
1.593,-0.06
1.593,-0.063
1.593,-0.128
1.594,-0.13
1.594,-0.167
1.594,-0.168
1.595,-0.18
1.595,-0.182
1.595,-0.185
1.595,-0.182
1.595,-0.177
1.596,-0.178
1.596,-0.168
1.596,-0.168
1.597,-0.163
1.597,-0.163
1.597,-0.16
1.597,-0.16
1.597,-0.157
1.598,-0.157
1.598,-0.148
1.598,-0.148
1.599,-0.145
1.599,-0.147
1.599,-0.15
1.599,-0.152
1.599,-0.145
1.6,-0.145
1.6,-0.123
1.6,-0.122
1.601,-0.103
1.601,-0.102
1.601,-0.078
1.601,-0.078
1.601,-0.048
1.602,-0.047
1.602,-0.038
1.602,-0.037
1.603,-0.045
1.603,-0.045
1.603,-0.06
1.603,-0.06
1.603,-0.07
1.604,-0.07
1.604,-0.072
1.604,-0.07
1.605,-0.058
1.605,-0.057
1.605,-0.032
1.605,-0.03
1.605,-0.028
1.606,-0.03
1.606,-0.042
1.606,-0.042
1.607,-0.053
1.607,-0.053
1.607,-0.05
1.607,-0.05
1.607,-0.043
1.608,-0.043
1.608,-0.035
1.608,-0.037
1.609,-0.027
1.609,-0.027
1.609,-0.023
1.609,-0.022
1.609,-0.02
1.61,-0.02
1.61,-0.018
1.61,-0.018
1.611,-0.015
1.611,-0.017
1.611,-0.01
1.611,-0.012
1.611,-0.013
1.612,-0.013
1.612,-0.012
1.612,-0.013
1.613,-0.015
1.613,-0.013
1.613,-0.012
1.613,-0.01
1.613,-0.012
1.614,-0.012
1.614,-0.013
1.614,-0.013
1.615,-0.015
1.615,-0.013
1.615,-0.015
1.615,-0.013
1.615,-0.012
1.616,-0.015
1.616,-0.012
1.616,-0.013
1.617,-0.008
1.617,-0.008
1.617,-0.005
1.617,-0.005
1.617,-0.002
1.618,-0.003
1.618,0
1.618,-0.002
1.619,-0.005
1.619,-0.002
1.619,0
1.619,-0.002
1.619,0.002
1.62,0.002
1.62,0.003
1.62,0.003
1.621,-0.002
1.621,0
1.621,-0.005
1.621,-0.007
1.621,-0.01
1.622,-0.002
1.622,-0.023
1.622,-0.027
1.623,-0.115
1.623,-0.115
1.623,-0.033
1.623,-0.028
1.623,0.082
1.624,0.083
1.624,0.102
1.624,0.098
1.625,0.062
1.625,0.06
1.625,0.023
1.625,0.02
1.625,-0.005
1.626,-0.005
1.626,-0.02
1.626,-0.02
1.627,-0.027
1.627,-0.027
1.627,-0.025
1.627,-0.028
1.627,-0.02
1.628,-0.018
1.628,-0.015
1.628,-0.015
1.629,-0.02
1.629,-0.02
1.629,-0.022
1.629,-0.02
1.629,-0.015
1.63,-0.015
1.63,-0.002
1.63,-0.002
1.631,0.008
1.631,0.007
1.631,0.002
1.631,0.002
1.631,-0.002
1.632,-0.002
1.632,-0.008
1.632,-0.005
1.633,-0.008
1.633,-0.003
1.633,0.002
1.633,0.003
1.633,0.01
1.634,0.01
1.634,0.017
1.634,0.018
1.635,0.022
1.635,0.023
1.635,0.018
1.635,0.02
1.635,0.015
1.636,0.018
1.636,0.023
1.636,0.027
1.637,0.02
1.637,0.018
1.637,-0.003
1.637,-0.007
1.637,-0.187
1.638,-0.228
1.638,-0.123
1.638,-0.115
1.639,0.038
1.639,0.043
1.639,0.123
1.639,0.128
1.639,0.115
1.64,0.113
1.64,0.075
1.64,0.073
1.641,0.033
1.641,0.032
1.641,-0.002
1.641,-0.002
1.641,-0.015
1.642,-0.013
1.642,-0.007
1.642,-0.007
1.643,0.002
1.643,0.002
1.643,0.007
1.643,0.007
1.643,0.008
1.644,0.008
1.644,0
1.644,0
1.645,-0.008
1.645,-0.008
1.645,-0.012
1.645,-0.012
1.645,-0.01
1.646,-0.012
1.646,-0.008
1.646,-0.012
1.647,-0.007
1.647,-0.007
1.647,-0.015
1.647,-0.017
1.647,-0.058
1.648,-0.06
1.648,-0.085
1.648,-0.087
1.649,-0.023
1.649,-0.02
1.649,0.038
1.649,0.043
1.649,0.03
1.65,0.03
1.65,0.012
1.65,0.013
1.651,0.015
1.651,0.015
1.651,-0.002
1.651,-0.003
1.651,0
1.652,-0.003
1.652,-0.002
1.652,-0.002
1.653,0.005
1.653,0.003
1.653,0.007
1.653,0.005
1.653,0
1.654,0
1.654,-0.007
1.654,-0.007
1.655,-0.013
1.655,-0.013
1.655,-0.017
1.655,-0.017
1.655,-0.02
1.656,-0.018
1.656,-0.02
1.656,-0.018
1.657,-0.02
1.657,-0.02
1.657,-0.017
1.657,-0.02
1.657,-0.017
1.658,-0.018
1.658,-0.02
1.658,-0.018
1.659,-0.017
1.659,-0.018
1.659,-0.017
1.659,-0.017
1.659,-0.018
1.66,-0.015
1.66,-0.02
1.66,-0.018
1.661,-0.023
1.661,-0.023
1.661,-0.025
1.661,-0.023
1.661,-0.027
1.662,-0.027
1.662,-0.023
1.662,-0.023
1.663,-0.027
1.663,-0.023
1.663,-0.025
1.663,-0.025
1.663,-0.032
1.664,-0.032
1.664,-0.033
1.664,-0.033
1.665,-0.035
1.665,-0.035
1.665,-0.038
1.665,-0.037
1.665,-0.033
1.666,-0.033
1.666,-0.025
1.666,-0.025
1.667,-0.018
1.667,-0.02
1.667,-0.012
1.667,-0.012
1.667,-0.007
1.668,-0.007
1.668,-0.003
1.668,-0.005
1.669,0
1.669,0
1.669,0.008
1.669,0.007
1.669,0.02
1.67,0.02
1.67,0.043
1.67,0.045
1.671,0.08
1.671,0.092
1.671,0.02
1.671,-0.035
1.671,0.267
1.672,0.465
1.672,0.14
1.672,0.355
1.673,-0.142
1.673,-0.157
1.673,-0.277
1.673,-0.293
1.673,-0.225
1.674,-0.222
1.674,-0.153
1.674,-0.152
1.675,-0.118
1.675,-0.117
1.675,-0.108
1.675,-0.108
1.675,-0.102
1.676,-0.103
1.676,-0.11
1.676,-0.112
1.677,-0.118
1.677,-0.118
1.677,-0.123
1.677,-0.122
1.677,-0.125
1.678,-0.125
1.678,-0.118
1.678,-0.118
1.679,-0.11
1.679,-0.11
1.679,-0.112
1.679,-0.112
1.679,-0.115
1.68,-0.115
1.68,-0.117
1.68,-0.115
1.681,-0.118
1.681,-0.12
1.681,-0.117
1.681,-0.117
1.681,-0.108
1.682,-0.108
1.682,-0.093
1.682,-0.093
1.683,-0.062
1.683,-0.06
1.683,-0.025
1.683,-0.025
1.683,-0.01
1.684,-0.01
1.684,-0.005
1.684,-0.007
1.685,-0.005
1.685,-0.007
1.685,-0.01
1.685,-0.008
1.685,-0.012
1.686,-0.012
1.686,-0.017
1.686,-0.017
1.687,-0.032
1.687,-0.033
1.687,-0.043
1.687,-0.042
1.688,-0.045
1.688,-0.045
1.688,-0.045
1.688,-0.043
1.688,-0.047
1.689,-0.047
1.689,-0.042
1.689,-0.043
1.69,-0.035
1.69,-0.035
1.69,-0.022
1.69,-0.022
1.69,0.002
1.691,0.003
1.691,0.04
1.691,0.042
1.692,0.115
1.692,0.1
1.692,0.157
1.692,0.155
1.692,-0.018
1.693,-0.017
1.693,0.287
1.693,0.282
1.694,0.235
1.694,0.235
1.694,0.212
1.694,0.21
1.694,0.13
1.695,0.125
1.695,0.003
1.695,-0.002
1.696,-0.112
1.696,-0.115
1.696,-0.187
1.696,-0.188
1.696,-0.228
1.697,-0.23
1.697,-0.243
1.697,-0.245
1.698,-0.252
1.698,-0.25
1.698,-0.258
1.698,-0.257
1.698,-0.268
1.699,-0.267
1.699,-0.27
1.699,-0.268
1.7,-0.255
1.7,-0.253
1.7,-0.22
1.7,-0.218
1.7,-0.182
1.701,-0.18
1.701,-0.143
1.701,-0.143
1.702,-0.122
1.702,-0.122
1.702,-0.112
1.702,-0.112
1.702,-0.1
1.703,-0.1
1.703,-0.09
1.703,-0.09
1.704,-0.08
1.704,-0.08
1.704,-0.067
1.704,-0.067
1.704,-0.06
1.705,-0.06
1.705,-0.053
1.705,-0.052
1.706,-0.047
1.706,-0.045
1.706,-0.048
1.706,-0.048
1.706,-0.057
1.707,-0.055
1.707,-0.065
1.707,-0.065
1.708,-0.072
1.708,-0.07
1.708,-0.063
1.708,-0.063
1.708,-0.048
1.709,-0.048
1.709,-0.033
1.709,-0.033
1.71,-0.017
1.71,-0.017
1.71,-0.008
1.71,-0.01
1.71,-0.003
1.711,-0.003
1.711,-0.005
1.711,-0.005
1.712,0.002
1.712,0.002
1.712,0
1.712,0
1.712,0.003
1.713,0.002
1.713,0.007
1.713,0.005
1.714,0.013
1.714,0.012
1.714,0.017
1.714,0.017
1.714,0.02
1.715,0.02
1.715,0.022
1.715,0.018
1.716,0.022
1.716,0.022
1.716,0.023
1.716,0.023
1.716,0.02
1.717,0.02
1.717,0.023
1.717,0.02
1.718,0.025
1.718,0.023
1.718,0.027
1.718,0.025
1.718,0.032
1.719,0.03
1.719,0.033
1.719,0.03
1.72,0.02
1.72,0.02
1.72,0.012
1.72,0.012
1.72,0.008
1.721,0.01
1.721,0.005
1.721,0.005
1.722,-0.005
1.722,-0.007
1.722,-0.003
1.722,-0.003
1.722,0.01
1.723,0.01
1.723,0.02
1.723,0.022
1.724,0.035
1.724,0.035
1.724,0.043
1.724,0.043
1.724,0.042
1.725,0.042
1.725,0.048
1.725,0.048
1.726,0.053
1.726,0.053
1.726,0.03
1.726,0.028
1.726,-0.055
1.727,-0.058
1.727,-0.13
1.727,-0.128
1.728,-0.038
1.728,-0.032
1.728,0.088
1.728,0.092
1.728,0.147
1.729,0.15
1.729,0.083
1.729,0.077
1.73,-0.022
1.73,-0.018
1.73,0.082
1.73,0.087
1.73,0.222
1.731,0.265
1.731,0.123
1.731,0.11
1.732,0.037
1.732,0.038
1.732,0.027
1.732,0.025
1.732,-0.008
1.733,-0.018
1.733,-0.007
1.733,-0.003
1.734,0.078
1.734,0.082
1.734,0.112
1.734,0.108
1.734,0.092
1.735,0.09
1.735,0.093
1.735,0.093
1.736,0.087
1.736,0.087
1.736,0.068
1.736,0.072
1.736,0.067
1.737,0.067
1.737,0.053
1.737,0.053
1.738,0.047
1.738,0.048
1.738,0.042
1.738,0.042
1.738,0.043
1.739,0.042
1.739,0.038
1.739,0.04
1.74,0.037
1.74,0.038
1.74,0.035
1.74,0.035
1.74,0.04
1.741,0.04
1.741,0.042
1.741,0.04
1.742,0.047
1.742,0.047
1.742,0.048
1.742,0.048
1.742,0.045
1.743,0.043
1.743,0.047
1.743,0.045
1.744,0.042
1.744,0.04
1.744,0.045
1.744,0.043
1.744,0.045
1.745,0.047
1.745,0.043
1.745,0.045
1.746,0.042
1.746,0.043
1.746,0.04
1.746,0.04
1.746,0.035
1.747,0.038
1.747,0.035
1.747,0.037
1.748,0.035
1.748,0.038
1.748,0.035
1.748,0.037
1.748,0.033
1.749,0.033
1.749,0.028
1.749,0.027
1.75,0.02
1.75,0.018
1.75,0.017
1.75,0.017
1.75,0.015
1.751,0.017
1.751,0.018
1.751,0.1
1.752,0.017
1.752,0.02
1.752,0.02
1.752,0.023
1.752,0.022
1.753,0.027
1.753,0.027
1.753,0.032
1.754,0.032
1.754,0.035
1.754,0.035
1.754,0.042
1.754,0.042
1.755,0.047
1.755,0.048
1.755,0.055
1.756,0.055
1.756,0.065
1.756,0.065
1.756,0.073
1.756,0.075
1.757,0.093
1.757,0.093
1.757,0.125
1.758,0.128
1.758,0.153
1.758,0.125
1.758,0.018
1.758,0.085
1.759,0.528
1.759,0.137
1.759,0.382
1.76,0.312
1.76,-0.128
1.76,-0.127
1.76,-0.208
1.76,-0.185
1.761,-0.1
1.761,-0.098
1.761,-0.055
1.762,-0.053
1.762,-0.035
1.762,-0.035
1.762,-0.023
1.762,-0.022
1.763,-0.01
1.763,-0.01
1.763,-0.002
1.764,-0.002
1.764,0.007
1.764,0.007
1.764,0.013
1.764,0.01
1.765,0.015
1.765,0.013
1.765,0.015
1.766,0.013
1.766,0.017
1.766,0.015
1.766,0.017
1.766,0.015
1.767,0.017
1.767,0.017
1.767,0.02
1.768,0.018
1.768,0.023
1.768,0.023
1.768,0.028
1.768,0.03
1.769,0.027
1.769,0.027
1.769,0.025
1.77,0.023
1.77,0.022
1.77,0.023
1.77,0.027
1.77,0.025
1.771,0.027
1.771,0.027
1.771,0.022
1.772,0.023
1.772,0.02
1.772,0.02
1.772,0.023
1.772,0.022
1.773,0.027
1.773,0.03
1.773,0.023
1.774,0.023
1.774,0.013
1.774,0.013
1.774,0.005
1.774,0.005
1.775,-0.002
1.775,-0.002
1.775,-0.01
1.776,-0.01
1.776,-0.027
1.776,-0.028
1.776,-0.033
1.776,-0.033
1.777,-0.027
1.777,-0.027
1.777,-0.012
1.778,-0.012
1.778,0.002
1.778,0.003
1.778,0.013
1.778,0.013
1.779,0.017
1.779,0.013
1.779,0.005
1.78,0.005
1.78,-0.002
1.78,-0.002
1.78,0.003
1.78,0.003
1.781,0.012
1.781,0.012
1.781,0.02
1.782,0.02
1.782,0.022
1.782,0.02
1.782,0.017
1.782,0.018
1.783,0.013
1.783,0.013
1.783,0.008
1.784,0.008
1.784,-0.002
1.784,-0.002
1.784,-0.015
1.784,-0.015
1.785,-0.02
1.785,-0.018
1.785,-0.022
1.786,-0.023
1.786,-0.027
1.786,-0.025
1.786,-0.015
1.786,-0.015
1.787,-0.002
1.787,0
1.787,0.015
1.788,0.015
1.788,0.028
1.788,0.028
1.788,0.045
1.788,0.045
1.789,0.073
1.789,0.073
1.789,0.098
1.79,0.1
1.79,0.125
1.79,0.125
1.79,0.16
1.79,0.18
1.791,0.14
1.791,0.182
1.791,0.075
1.792,0.035
1.792,0.132
1.792,0.16
1.792,0.523
1.792,0.422
1.793,0.307
1.793,0.303
1.793,0.193
1.794,0.19
1.794,0.07
1.794,0.065
1.794,-0.052
1.794,-0.057
1.795,-0.147
1.795,-0.15
1.795,-0.197
1.796,-0.197
1.796,-0.22
1.796,-0.22
1.796,-0.223
1.796,-0.222
1.797,-0.208
1.797,-0.207
1.797,-0.185
1.798,-0.183
1.798,-0.158
1.798,-0.158
1.798,-0.127
1.798,-0.125
1.799,-0.103
1.799,-0.103
1.799,-0.09
1.8,-0.088
1.8,-0.077
1.8,-0.075
1.8,-0.07
1.8,-0.072
1.801,-0.068
1.801,-0.068
1.801,-0.063
1.802,-0.068
1.802,-0.065
1.802,-0.065
1.802,-0.055
1.802,-0.055
1.803,-0.048
1.803,-0.048
1.803,-0.033
1.804,-0.033
1.804,-0.02
1.804,-0.018
1.804,-0.015
1.804,-0.013
1.805,-0.017
1.805,-0.017
1.805,-0.007
1.806,-0.007
1.806,0.002
1.806,0.002
1.806,0.012
1.806,0.012
1.807,0.022
1.807,0.022
1.807,0.032
1.808,0.035
1.808,0.013
1.808,0.01
1.808,-0.085
1.808,-0.09
1.809,-0.12
1.809,-0.107
1.809,0.003
1.81,0.01
1.81,0.12
1.81,0.123
1.81,0.19
1.81,0.19
1.811,0.165
1.811,0.163
1.811,0.123
1.812,0.123
1.812,0.098
1.812,0.097
1.812,0.087
1.812,0.087
1.813,0.08
1.813,0.078
1.813,0.073
1.813,0.073
1.814,0.068
1.814,0.068
1.814,0.072
1.815,0.07
1.815,0.065
1.815,0.065
1.815,0.068
1.815,0.067
1.816,0.07
1.816,0.068
1.816,0.07
1.817,0.067
1.817,0.07
1.817,0.067
1.817,0.072
1.817,0.07
1.818,0.052
1.818,0.05
1.818,0.003
1.819,0
1.819,-0.032
1.819,-0.033
1.819,0.015
1.819,0.018
1.82,0.097
1.82,0.098
1.82,0.107
1.821,0.103
1.821,0.093
1.821,0.093
1.821,0.098
1.821,0.093
1.822,0.068
1.822,0.067
1.822,0.055
1.823,0.055
1.823,0.05
1.823,0.05
1.823,0.047
1.823,0.048
1.824,0.05
1.824,0.047
1.824,0.05
1.825,0.05
1.825,0.065
1.825,0.065
1.825,0.12
1.825,0.147
1.826,0.025
1.826,0.012
1.826,-0.047
1.827,-0.035
1.827,0.01
1.827,0.012
1.827,0.037
1.827,0.037
1.828,0.048
1.828,0.048
1.828,0.05
1.829,0.05
1.829,0.045
1.829,0.045
1.829,0.04
1.829,0.04
1.83,0.03
1.83,0.03
1.83,0.018
1.831,0.017
1.831,0.01
1.831,0.013
1.831,-0.04
1.831,-0.045
1.832,-0.11
1.832,-0.097
1.832,0.003
1.833,0.01
1.833,0.103
1.833,0.11
1.833,0.103
1.833,0.103
1.834,0.062
1.834,0.058
1.834,0.018
1.835,0.017
1.835,0.002
1.835,0.002
1.835,-0.01
1.835,-0.01
1.836,-0.012
1.836,-0.008
1.836,-0.005
1.837,-0.005
1.837,0
1.837,0
1.837,0.003
1.837,0.002
1.838,0.005
1.838,0.005
1.838,0.008
1.839,0.007
1.839,0.01
1.839,0.012
1.839,0.007
1.839,0.007
1.84,0.005
1.84,0.007
1.84,0.002
1.841,0.002
1.841,-0.003
1.841,-0.002
1.841,-0.005
1.841,-0.005
1.842,-0.003
1.842,-0.003
1.842,0
1.843,0
1.843,0.003
1.843,0.002
1.843,0.005
1.843,0.005
1.844,0.008
1.844,0.007
1.844,0.01
1.845,0.01
1.845,0.005
1.845,0.005
1.845,-0.003
1.845,-0.005
1.846,-0.012
1.846,-0.01
1.846,-0.013
1.847,-0.013
1.847,-0.017
1.847,-0.017
1.847,-0.015
1.847,-0.015
1.848,-0.017
1.848,-0.013
1.848,-0.017
1.849,-0.015
1.849,-0.018
1.849,-0.018
1.849,-0.017
1.849,-0.017
1.85,-0.018
1.85,-0.017
1.85,-0.018
1.851,-0.017
1.851,-0.02
1.851,-0.02
1.851,-0.023
1.851,-0.023
1.852,-0.02
1.852,-0.02
1.852,-0.023
1.853,-0.02
1.853,-0.025
1.853,-0.02
1.853,-0.018
1.853,-0.018
1.854,-0.017
1.854,-0.017
1.854,-0.013
1.855,-0.013
1.855,-0.008
1.855,-0.01
1.855,-0.013
1.855,-0.012
1.856,-0.017
1.856,-0.017
1.856,-0.025
1.857,-0.022
1.857,-0.027
1.857,-0.027
1.857,-0.03
1.857,-0.03
1.858,-0.023
1.858,-0.022
1.858,-0.015
1.859,-0.015
1.859,-0.007
1.859,-0.007
1.859,0.005
1.859,0.007
1.86,0.018
1.86,0.02
1.86,0.028
1.861,0.028
1.861,0.033
1.861,0.032
1.861,0.037
1.861,0.035
1.862,0.047
1.862,0.048
1.862,0.088
1.863,0.1
1.863,0.028
1.863,-0.015
1.863,0.337
1.863,0.473
1.864,0.062
1.864,0.323
1.864,-0.048
1.865,-0.075
1.865,-0.263
1.865,-0.277
1.865,-0.208
1.865,-0.203
1.866,-0.132
1.866,-0.13
1.866,-0.102
1.867,-0.102
1.867,-0.092
1.867,-0.093
1.867,-0.095
1.867,-0.092
1.868,-0.085
1.868,-0.085
1.868,-0.075
1.869,-0.075
1.869,-0.08
1.869,-0.078
1.869,-0.087
1.869,-0.087
1.87,-0.092
1.87,-0.093
1.87,-0.088
1.871,-0.088
1.871,-0.07
1.871,-0.07
1.871,-0.048
1.871,-0.047
1.872,-0.038
1.872,-0.038
1.872,-0.033
1.873,-0.035
1.873,-0.037
1.873,-0.035
1.873,-0.038
1.873,-0.038
1.874,-0.047
1.874,-0.045
1.874,-0.05
1.875,-0.047
1.875,-0.05
1.875,-0.047
1.875,-0.03
1.875,-0.03
1.876,-0.023
1.876,-0.023
1.876,-0.018
1.877,-0.02
1.877,-0.017
1.877,-0.018
1.877,-0.015
1.877,-0.015
1.878,-0.002
1.878,-0.002
1.878,0.005
1.879,0.005
1.879,0.015
1.879,0.017
1.879,0.033
1.879,0.033
1.88,0.043
1.88,0.043
1.88,0.037
1.881,0.038
1.881,0.032
1.881,0.028
1.881,0.032
1.881,0.028
1.882,0.015
1.882,0.015
1.882,0
1.883,0.002
1.883,-0.002
1.883,-0.002
1.883,-0.003
1.883,-0.003
1.884,0.002
1.884,0.002
1.884,0.008
1.885,0.007
1.885,-0.002
1.885,0
1.885,-0.005
1.885,-0.005
1.886,-0.012
1.886,-0.012
1.886,-0.01
1.887,-0.012
1.887,-0.008
1.887,-0.012
1.887,-0.007
1.887,-0.007
1.888,-0.01
1.888,-0.012
1.888,-0.008
1.889,-0.008
1.889,0.003
1.889,0.003
1.889,0.02
1.889,0.022
1.89,0.042
1.89,0.042
1.89,0.068
1.891,0.068
1.891,0.087
1.891,0.085
1.891,0.03
1.891,0.025
1.892,-0.07
1.892,-0.097
1.892,-0.072
1.893,-0.068
1.893,0.062
1.893,0.067
1.893,0.152
1.893,0.153
1.894,0.185
1.894,0.183
1.894,0.167
1.895,0.167
1.895,0.16
1.895,0.162
1.895,0.173
1.895,0.173
1.896,0.207
1.896,0.208
1.896,0.258
1.897,0.233
1.897,0.305
1.897,0.27
1.897,0.518
1.897,0.515
1.898,0.292
1.898,0.383
1.898,0.41
1.899,0.392
1.899,0.355
1.899,0.352
1.899,0.242
1.899,0.237
1.9,0.105
1.9,0.1
1.9,-0.005
1.901,-0.01
1.901,-0.082
1.901,-0.083
1.901,-0.123
1.901,-0.125
1.902,-0.132
1.902,-0.132
1.902,-0.125
1.903,-0.125
1.903,-0.118
1.903,-0.117
1.903,-0.103
1.903,-0.102
1.904,-0.088
1.904,-0.087
1.904,-0.072
1.905,-0.072
1.905,-0.053
1.905,-0.053
1.905,-0.04
1.905,-0.04
1.906,-0.057
1.906,-0.057
1.906,-0.082
1.907,-0.087
1.907,-0.055
1.907,-0.052
1.907,0.048
1.907,0.05
1.908,0.075
1.908,0.075
1.908,0.065
1.909,0.067
1.909,0.075
1.909,0.078
1.909,0.073
1.909,0.073
1.91,0.068
1.91,0.07
1.91,0.073
1.911,0.072
1.911,0.067
1.911,0.07
1.911,0.073
1.911,0.075
1.912,0.087
1.912,0.087
1.912,0.09
1.913,0.088
1.913,0.09
1.913,0.088
1.913,0.092
1.913,0.087
1.914,0.08
1.914,0.08
1.914,0.073
1.915,0.073
1.915,0.07
1.915,0.072
1.915,0.077
1.915,0.077
1.916,0.087
1.916,0.087
1.916,0.125
1.917,0.128
1.917,0.18
1.917,0.178
1.917,-0.015
1.917,-0.015
1.918,0.022
1.918,0.025
1.918,0.063
1.919,0.065
1.919,0.085
1.919,0.085
1.919,0.097
1.919,0.097
1.92,0.102
1.92,0.102
1.92,0.105
1.921,0.102
1.921,0.105
1.921,0.103
1.921,0.105
1.921,0.103
1.922,0.105
1.922,0.103
1.922,0.1
1.923,0.102
1.923,0.098
1.923,0.1
1.923,0.098
1.923,0.1
1.924,0.095
1.924,0.097
1.924,0.092
1.925,0.093
1.925,0.09
1.925,0.093
1.925,0.088
1.925,0.09
1.926,0.087
1.926,0.087
1.926,0.082
1.927,0.082
1.927,0.078
1.927,0.08
1.927,0.075
1.927,0.077
1.928,0.075
1.928,0.075
1.928,0.08
1.929,0.077
1.929,0.083
1.929,0.083
1.929,0.088
1.929,0.088
1.93,0.093
1.93,0.09
1.93,0.095
1.931,0.095
1.931,0.097
1.931,0.093
1.931,0.098
1.931,0.098
1.932,0.093
1.932,0.095
1.932,0.092
1.933,0.092
1.933,0.093
1.933,0.09
1.933,0.092
1.933,0.088
1.934,0.09
1.934,0.087
1.934,0.09
1.935,0.088
1.935,0.09
1.935,0.09
1.935,0.087
1.935,0.088
1.936,0.085
1.936,0.085
1.936,0.083
1.937,0.083
1.937,0.08
1.937,0.08
1.937,0.078
1.938,0.077
1.938,0.072
1.938,0.072
1.938,0.067
1.938,0.07
1.939,0.065
1.939,0.067
1.939,0.063
1.94,0.067
1.94,0.063
1.94,0.065
1.94,0.067
1.94,0.065
1.941,0.067
1.941,0.067
1.941,0.07
1.942,0.07
1.942,0.068
1.942,0.07
1.942,0.068
1.942,0.07
1.943,0.065
1.943,0.067
1.943,0.062
1.944,0.063
1.944,0.06
1.944,0.058
1.944,0.068
1.944,0.068
1.945,0.037
1.945,0.033
1.945,-0.03
1.946,-0.022
1.946,0.07
1.946,0.075
1.946,0.162
1.946,0.163
1.947,0.17
1.947,0.162
1.947,0.128
1.948,0.127
1.948,0.1
1.948,0.1
1.948,0.082
1.948,0.082
1.949,0.075
1.949,0.073
1.949,0.068
1.95,0.068
1.95,0.065
1.95,0.07
1.95,0.067
1.95,0.068
1.951,0.072
1.951,0.073
1.951,0.088
1.952,0.09
1.952,0.13
1.952,0.138
1.952,0.058
1.952,-0.003
1.953,0.308
1.953,0.548
1.953,0.215
1.954,0.397
1.954,-0.04
1.954,-0.057
1.954,-0.155
1.954,-0.18
1.955,-0.123
1.955,-0.12
1.955,-0.053
1.956,-0.052
1.956,-0.02
1.956,-0.02
1.956,-0.005
1.956,-0.005
1.957,0.007
1.957,0.007
1.957,0.012
1.958,0.012
1.958,0.008
1.958,0.012
1.958,0.013
1.958,0.012
1.959,0.01
1.959,0.012
1.959,0.008
1.96,0.008
1.96,0.012
1.96,0.01
1.96,0.017
1.96,0.017
1.961,0.023
1.961,0.022
1.961,0.027
1.962,0.027
1.962,0.035
1.962,0.035
1.962,0.047
1.962,0.047
1.963,0.052
1.963,0.05
1.963,0.055
1.964,0.055
1.964,0.062
1.964,0.06
1.964,0.047
1.964,0.047
1.965,0.028
1.965,0.027
1.965,0.008
1.966,0.007
1.966,-0.003
1.966,-0.007
1.966,-0.003
1.966,-0.005
1.967,0.002
1.967,0.003
1.967,0.008
1.968,0.01
1.968,0.017
1.968,0.017
1.968,0.023
1.968,0.023
1.969,0.022
1.969,0.022
1.969,0.023
1.97,0.023
1.97,0.027
1.97,0.027
1.97,0.032
1.97,0.03
1.971,0.033
1.971,0.03
1.971,0.028
1.972,0.028
1.972,0.027
1.972,0.027
1.972,0.023
1.972,0.025
1.973,0.028
1.973,0.027
1.973,0.03
1.974,0.027
1.974,0.032
1.974,0.028
1.974,0.025
1.974,0.025
1.975,0.018
1.975,0.018
1.975,0.013
1.976,0.015
1.976,0.01
1.976,0.012
1.976,0.015
1.976,0.017
1.977,0.023
1.977,0.023
1.977,0.03
1.978,0.03
1.978,0.037
1.978,0.037
1.978,0.04
1.978,0.037
1.979,0.04
1.979,0.038
1.979,0.037
1.98,0.035
1.98,0.028
1.98,0.028
1.98,0.032
1.98,0.028
1.981,0.033
1.981,0.033
1.981,0.035
1.982,0.037
1.982,0.032
1.982,0.032
1.982,0.023
1.982,0.022
1.983,0.015
1.983,0.015
1.983,0.003
1.984,0.005
1.984,-0.002
1.984,-0.002
1.984,0.002
1.984,0
1.985,0.008
1.985,0.008
1.985,0.013
1.986,0.013
1.986,0.018
1.986,0.022
1.986,0.017
1.986,0.018
1.987,-0.002
1.987,-0.003
1.987,-0.075
1.988,-0.08
1.988,-0.145
1.988,-0.143
1.988,-0.065
1.988,-0.058
1.989,0.047
1.989,0.05
1.989,0.118
1.99,0.122
1.99,0.107
1.99,0.105
1.99,0.065
1.99,0.063
1.991,0.033
1.991,0.032
1.991,0.018
1.992,0.018
1.992,0.017
1.992,0.018
1.992,0.015
1.992,0.017
1.993,0.02
1.993,0.02
1.993,0.015
1.994,0.013
1.994,0
1.994,0
1.994,-0.007
1.994,-0.007
1.995,-0.01
1.995,-0.01
1.995,-0.008
1.996,-0.012
1.996,-0.008
1.996,-0.01
1.996,-0.013
1.996,-0.013
1.997,-0.008
1.997,-0.008
1.997,-0.002
1.998,-0.002
1.998,0.003
1.998,0.003
1.998,-0.007
1.998,-0.008
1.999,-0.03
1.999,-0.03
1.999,-0.055
2,-0.057
2,-0.073
2,-0.077
2,-0.068
2.001,-0.067
2.001,-0.043
2.001,-0.043
2.001,-0.017
2.002,0.1
2.002,-0.015
2.002,-0.002
2.002,0
2.002,0.01
2.003,0.01
2.003,0.027
2.003,0.027
2.003,0.02
2.004,0.02
2.004,-0.017
2.004,-0.018
2.005,-0.077
2.005,-0.078
2.005,-0.097
2.005,-0.093
2.006,-0.008
2.006,-0.003
2.006,0.058
2.006,0.06
2.006,0.043
2.007,0.043
2.007,0.032
2.007,0.032
2.007,0.012
2.008,0.012
2.008,-0.008
2.008,-0.008
2.009,-0.015
2.009,-0.015
2.009,-0.023
2.009,-0.023
2.01,-0.018
2.01,-0.017
2.01,-0.008
2.01,-0.007
2.01,0.003
2.011,0.005
2.011,0.023
2.011,0.025
2.011,0.05
2.012,0.052
2.012,0.092
2.012,0.095
2.013,0.163
2.013,0.135
2.013,0.172
2.013,0.157
2.014,-0.007
2.014,0
2.014,0.35
2.014,0.435
2.014,0.362
2.015,0.362
2.015,0.32
2.015,0.31
2.015,0.022
2.016,0.017
2.016,-0.065
2.016,-0.068
2.017,-0.135
2.017,-0.138
2.017,-0.185
2.017,-0.185
2.018,-0.215
2.018,-0.217
2.018,-0.228
2.018,-0.23
2.018,-0.227
2.019,-0.228
2.019,-0.218
2.019,-0.218
2.019,-0.207
2.02,-0.207
2.02,-0.192
2.02,-0.192
2.021,-0.177
2.021,-0.177
2.021,-0.162
2.021,-0.162
2.022,-0.15
2.022,-0.15
2.022,-0.133
2.022,-0.133
2.022,-0.118
2.023,-0.12
2.023,-0.107
2.023,-0.107
2.023,-0.1
2.024,-0.1
2.024,-0.097
2.024,-0.098
2.025,-0.097
2.025,-0.098
2.025,-0.095
2.025,-0.097
2.026,-0.092
2.026,-0.093
2.026,-0.088
2.026,-0.087
2.026,-0.08
2.027,-0.078
2.027,-0.082
2.027,-0.08
2.027,-0.083
2.028,-0.08
2.028,-0.075
2.028,-0.077
2.029,-0.08
2.029,-0.08
2.029,-0.092
2.029,-0.093
2.03,-0.1
2.03,-0.097
2.03,-0.075
2.03,-0.073
2.03,-0.045
2.031,-0.043
2.031,-0.01
2.031,-0.008
2.031,0.007
2.032,0.007
2.032,-0.005
2.032,-0.007
2.033,-0.03
2.033,-0.03
2.033,-0.04
2.033,-0.04
2.034,-0.042
2.034,-0.042
2.034,-0.038
2.034,-0.04
2.034,-0.033
2.035,-0.033
2.035,-0.028
2.035,-0.028
2.035,-0.022
2.036,-0.023
2.036,-0.015
2.036,-0.015
2.037,-0.008
2.037,-0.008
2.037,0
2.037,0
2.038,0.023
2.038,0.025
2.038,0.052
2.038,0.055
2.038,-0.047
2.039,-0.053
2.039,0.338
2.039,0.272
2.039,-0.007
2.04,0.188
2.04,-0.322
2.04,-0.31
2.041,-0.347
2.041,-0.307
2.041,-0.127
2.041,-0.12
2.042,-0.058
2.042,-0.053
2.042,-0.062
2.042,-0.062
2.042,-0.07
2.043,-0.072
2.043,-0.067
2.043,-0.067
2.043,-0.057
2.044,-0.058
2.044,-0.052
2.044,-0.048
2.045,-0.052
2.045,-0.048
2.045,-0.045
2.045,-0.047
2.046,-0.042
2.046,-0.042
2.046,-0.038
2.046,-0.038
2.046,-0.035
2.047,-0.037
2.047,-0.033
2.047,-0.035
2.047,-0.03
2.048,-0.03
2.048,-0.027
2.048,-0.027
2.049,-0.033
2.049,-0.033
2.049,-0.038
2.049,-0.038
2.05,-0.047
2.05,-0.045
2.05,-0.05
2.05,-0.05
2.05,-0.055
2.051,-0.055
2.051,-0.06
2.051,-0.058
2.051,-0.062
2.052,-0.06
2.052,-0.063
2.052,-0.062
2.053,-0.057
2.053,-0.057
2.053,-0.048
2.053,-0.047
2.054,-0.038
2.054,-0.038
2.054,-0.042
2.054,-0.04
2.054,-0.035
2.055,-0.038
2.055,-0.035
2.055,-0.035
2.055,-0.032
2.056,-0.032
2.056,-0.03
2.056,-0.03
2.057,-0.037
2.057,-0.035
2.057,-0.042
2.057,-0.042
2.058,-0.055
2.058,-0.055
2.058,-0.065
2.058,-0.065
2.058,-0.077
2.059,-0.077
2.059,-0.082
2.059,-0.082
2.059,-0.078
2.06,-0.078
2.06,-0.072
2.06,-0.07
2.061,-0.055
2.061,-0.055
2.061,-0.05
2.061,-0.05
2.062,-0.047
2.062,-0.048
2.062,-0.045
2.062,-0.047
2.062,-0.05
2.063,-0.048
2.063,-0.045
2.063,-0.048
2.063,-0.035
2.064,-0.035
2.064,-0.025
2.064,-0.028
2.064,-0.092
2.065,-0.095
2.065,-0.182
2.065,-0.182
2.066,-0.148
2.066,-0.145
2.066,-0.023
2.066,-0.02
2.067,0.058
2.067,0.06
2.067,0.067
2.067,0.062
2.067,0.028
2.068,0.027
2.068,0.003
2.068,0.002
2.068,-0.008
2.069,-0.008
2.069,-0.012
2.069,-0.008
2.07,-0.007
2.07,-0.008
2.07,-0.012
2.07,-0.008
2.071,-0.012
2.071,-0.01
2.071,-0.015
2.071,-0.013
2.071,-0.018
2.072,-0.017
2.072,-0.023
2.072,-0.022
2.072,-0.027
2.073,-0.025
2.073,-0.028
2.073,-0.028
2.074,-0.027
2.074,-0.027
2.074,-0.028
2.074,-0.028
2.075,-0.032
2.075,-0.03
2.075,-0.035
2.075,-0.035
2.075,-0.04
2.076,-0.04
2.076,-0.045
2.076,-0.043
2.076,-0.047
2.077,-0.045
2.077,-0.048
2.077,-0.045
2.078,-0.052
2.078,-0.053
2.078,-0.05
2.078,-0.048
2.079,-0.052
2.079,-0.052
2.079,-0.047
2.079,-0.048
2.079,-0.045
2.08,-0.045
2.08,-0.037
2.08,-0.038
2.08,-0.032
2.081,-0.03
2.081,-0.025
2.081,-0.023
2.082,-0.018
2.082,-0.02
2.082,-0.023
2.082,-0.025
2.083,-0.027
2.083,-0.025
2.083,-0.028
2.083,-0.028
2.083,-0.025
2.084,-0.023
2.084,-0.02
2.084,-0.02
2.084,-0.017
2.085,-0.015
2.085,-0.012
2.085,-0.015
2.086,-0.01
2.086,-0.01
2.086,-0.015
2.086,-0.015
2.087,-0.012
2.087,-0.012
2.087,-0.015
2.087,-0.013
2.087,-0.02
2.088,-0.017
2.088,-0.023
2.088,-0.023
2.088,-0.027
2.089,-0.028
2.089,-0.025
2.089,-0.025
2.09,-0.03
2.09,-0.028
2.09,-0.03
2.09,-0.03
2.091,-0.028
2.091,-0.028
2.091,-0.025
2.091,-0.025
2.091,-0.022
2.092,-0.022
2.092,-0.012
2.092,-0.012
2.092,-0.002
2.093,-0.003
2.093,0.003
2.093,0.003
2.094,0.007
2.094,0.007
2.094,0.002
2.094,0.003
2.095,-0.002
2.095,0
2.095,-0.003
2.095,0
2.095,0.002
2.096,0.002
2.096,0.007
2.096,0.005
2.096,0.008
2.097,0.008
2.097,0.005
2.097,0.007
2.098,0.008
2.098,0.008
2.098,0.005
2.098,0.007
2.099,0.008
2.099,0.008
2.099,0.01
2.099,0.01
2.099,0.007
2.1,0.008
2.1,0.005
2.1,0.007
2.1,0.005
2.101,0.007
2.101,0.008
2.101,0.008
2.102,0.012
2.102,0.013
2.102,0.01
2.102,0.015
2.103,0.018
2.103,0.018
2.103,0.027
2.103,0.027
2.103,0.028
2.104,0.03
2.104,0.033
2.104,0.032
2.104,0.023
2.105,0.022
2.105,0.003
2.105,0.003
2.106,-0.01
2.106,-0.012
2.106,-0.008
2.106,-0.01
2.107,0.002
2.107,0.003
2.107,0.022
2.107,0.023
2.107,0.038
2.108,0.038
2.108,0.042
2.108,0.04
2.108,0.018
2.109,0.018
2.109,-0.002
2.109,-0.002
2.11,-0.012
2.11,-0.013
2.11,-0.005
2.11,-0.005
2.111,0.007
2.111,0.007
2.111,0.008
2.111,0.008
2.111,0.01
2.112,0.012
2.112,0.02
2.112,0.02
2.112,0.035
2.113,0.035
2.113,0.052
2.113,0.053
2.114,0.045
2.114,0.045
2.114,0.003
2.114,0
2.115,-0.06
2.115,-0.062
2.115,-0.078
2.115,-0.068
2.115,0.015
2.116,0.018
2.116,0.053
2.116,0.052
2.116,0.043
2.117,0.04
2.117,0.06
2.117,0.062
2.118,0.068
2.118,0.067
2.118,0.052
2.118,0.053
2.119,0.058
2.119,0.058
2.119,0.063
2.119,0.063
2.119,0.07
2.12,0.07
2.12,0.062
2.12,0.06
2.12,0.048
2.121,0.047
2.121,0.05
2.121,0.05
2.122,0.067
2.122,0.068
2.122,0.08
2.122,0.08
2.123,0.095
2.123,0.095
2.123,0.1
2.123,0.1
2.123,0.088
2.124,0.088
2.124,0.078
2.124,0.082
2.124,0.087
2.125,0.087
2.125,0.103
2.125,0.103
2.126,0.13
2.126,0.132
2.126,0.167
2.126,0.168
2.127,0.235
2.127,0.262
2.127,0.093
2.127,0.082
2.127,0.122
2.128,0.125
2.128,0.19
2.128,0.192
2.128,0.273
2.129,0.262
2.129,0.332
2.129,0.33
2.13,0.2
2.13,0.207
2.13,0.4
2.13,0.3
2.131,0.372
2.131,0.372
2.131,0.388
2.131,0.387
2.131,0.35
2.132,0.348
2.132,0.28
2.132,0.277
2.132,0.113
2.133,0.053
2.133,0.358
2.133,0.397
2.134,0.06
2.134,0.302
2.134,-0.11
2.134,-0.125
2.135,-0.26
2.135,-0.262
2.135,-0.178
2.135,-0.175
2.135,-0.103
2.136,-0.102
2.136,-0.065
2.136,-0.063
2.136,-0.033
2.137,-0.032
2.137,-0.007
2.137,-0.005
2.138,0.022
2.138,0.022
2.138,0.047
2.138,0.047
2.139,0.062
2.139,0.062
2.139,0.077
2.139,0.078
2.139,0.087
2.14,0.087
2.14,0.088
2.14,0.085
2.14,0.088
2.141,0.088
2.141,0.1
2.141,0.1
2.142,0.113
2.142,0.113
2.142,0.127
2.142,0.128
2.143,0.138
2.143,0.142
2.143,0.123
2.143,0.122
2.143,0.05
2.144,0.043
2.144,-0.02
2.144,-0.018
2.144,0.055
2.145,0.062
2.145,0.158
2.145,0.162
2.146,0.218
2.146,0.225
2.146,0.188
2.146,0.183
2.147,0.068
2.147,0.065
2.147,0.112
2.147,0.115
2.147,0.195
2.148,0.198
2.148,0.212
2.148,0.208
2.148,0.178
2.149,0.177
2.149,0.153
2.149,0.152
2.15,0.145
2.15,0.147
2.15,0.143
2.15,0.145
2.151,0.137
2.151,0.137
2.151,0.123
2.151,0.123
2.151,0.107
2.152,0.107
2.152,0.097
2.152,0.095
2.152,0.09
2.153,0.092
2.153,0.093
2.153,0.09
2.154,0.093
2.154,0.093
2.154,0.09
2.154,0.09
2.155,0.088
2.155,0.09
2.155,0.087
2.155,0.088
2.155,0.083
2.156,0.083
2.156,0.073
2.156,0.075
2.156,0.07
2.157,0.07
2.157,0.073
2.157,0.07
2.158,0.065
2.158,0.065
2.158,0.052
2.158,0.052
2.159,0.038
2.159,0.04
2.159,0.027
2.159,0.027
2.159,0.017
2.16,0.015
2.16,0.007
2.16,0.007
2.16,-0.003
2.161,-0.003
2.161,-0.017
2.161,-0.017
2.162,-0.028
2.162,-0.027
2.162,-0.035
2.162,-0.033
2.163,-0.042
2.163,-0.042
2.163,-0.05
2.163,-0.05
2.163,-0.055
2.164,-0.053
2.164,-0.055
2.164,-0.053
2.164,-0.058
2.165,-0.058
2.165,-0.062
2.165,-0.063
2.166,-0.058
2.166,-0.058
2.166,-0.057
2.166,-0.058
2.167,-0.053
2.167,-0.053
2.167,-0.05
2.167,-0.052
2.167,-0.048
2.168,-0.048
2.168,-0.045
2.168,-0.047
2.168,-0.043
2.169,-0.045
2.169,-0.042
2.169,-0.043
2.17,-0.045
2.17,-0.043
2.17,-0.045
2.17,-0.045
2.171,-0.047
2.171,-0.045
2.171,-0.038
2.171,-0.04
2.171,-0.028
2.172,-0.028
2.172,-0.017
2.172,-0.017
2.172,-0.008
2.173,-0.008
2.173,-0.005
2.173,-0.007
2.174,-0.01
2.174,-0.012
2.174,-0.013
2.174,-0.013
2.175,-0.018
2.175,-0.017
2.175,-0.022
2.175,-0.022
2.175,-0.023
2.176,-0.025
2.176,-0.028
2.176,-0.027
2.176,-0.03
2.177,-0.03
2.177,-0.032
2.177,-0.033
2.178,-0.027
2.178,-0.03
2.178,-0.022
2.178,-0.02
2.179,-0.013
2.179,-0.015
2.179,-0.017
2.179,-0.015
2.179,-0.01
2.18,-0.01
2.18,-0.008
2.18,-0.008
2.18,-0.005
2.181,-0.007
2.181,-0.015
2.181,-0.015
2.182,-0.01
2.182,-0.008
2.182,0
2.182,0
2.183,0.01
2.183,0.01
2.183,0.025
2.183,0.025
2.183,0.047
2.184,0.047
2.184,0.067
2.184,0.067
2.184,0.078
2.185,0.078
2.185,0.087
2.185,0.087
2.186,0.088
2.186,0.087
2.186,0.073
2.186,0.073
2.187,0.06
2.187,0.058
2.187,0.053
2.187,0.055
2.188,0.052
2.188,0.055
2.188,0.062
2.188,0.063
2.188,0.06
2.189,0.062
2.189,0.05
2.189,0.048
2.189,0.03
2.19,0.03
2.19,0.008
2.19,0.007
2.191,0.002
2.191,0.003
2.191,0.005
2.191,0.007
2.192,0.015
2.192,0.015
2.192,0.025
2.192,0.025
2.192,0.023
2.193,0.023
2.193,0.028
2.193,0.028
2.193,0.025
2.194,0.025
2.194,0.028
2.194,0.03
2.195,0.04
2.195,0.04
2.195,0.045
2.195,0.043
2.196,0.048
2.196,0.047
2.196,0.05
2.196,0.048
2.196,0.04
2.197,0.04
2.197,0.033
2.197,0.033
2.197,0.028
2.198,0.028
2.198,0.02
2.198,0.02
2.199,0.018
2.199,0.018
2.199,0.022
2.199,0.018
2.2,0.017
2.2,0.017
2.2,0.025
2.2,0.027
2.2,0.03
2.201,0.032
2.201,0.022
2.201,0.02
2.201,0.015
2.202,0.015
2.202,0.008
2.202,0.01
2.203,0.002
2.203,0
2.203,-0.04
2.203,-0.042
2.204,-0.08
2.204,-0.085
2.204,-0.047
2.204,-0.043
2.204,-0.007
2.205,-0.007
2.205,-0.022
2.205,-0.025
2.205,-0.015
2.206,-0.015
2.206,0.007
2.206,0.007
2.207,0.013
2.207,0.013
2.207,0.007
2.207,0.005
2.208,-0.007
2.208,-0.007
2.208,-0.01
2.208,-0.012
2.208,-0.017
2.209,-0.017
2.209,-0.025
2.209,-0.027
2.209,-0.04
2.21,-0.04
2.21,-0.048
2.21,-0.048
2.211,-0.052
2.211,-0.052
2.211,-0.055
2.211,-0.052
2.212,-0.055
2.212,-0.055
2.212,-0.05
2.212,-0.052
2.212,-0.05
2.213,-0.05
2.213,-0.052
2.213,-0.052
2.213,-0.047
2.214,-0.05
2.214,-0.048
2.214,-0.052
2.215,-0.048
2.215,-0.05
2.215,-0.055
2.215,-0.053
2.216,-0.057
2.216,-0.057
2.216,-0.053
2.216,-0.055
2.216,-0.048
2.217,-0.05
2.217,-0.042
2.217,-0.042
2.217,-0.05
2.218,-0.048
2.218,-0.06
2.218,-0.06
2.219,-0.067
2.219,-0.065
2.219,-0.063
2.219,-0.063
2.22,-0.06
2.22,-0.06
2.22,-0.065
2.22,-0.062
2.22,-0.067
2.221,-0.067
2.221,-0.075
2.221,-0.073
2.221,-0.077
2.222,-0.077
2.222,-0.082
2.222,-0.08
2.223,-0.065
2.223,-0.065
2.223,-0.047
2.223,-0.045
2.224,-0.005
2.224,-0.003
2.224,0.105
2.224,0.142
2.224,0
2.225,-0.148
2.225,0.015
2.225,0.123
2.225,-0.062
2.226,0.193
2.226,-0.063
2.226,-0.097
2.227,-0.252
2.227,-0.265
2.227,-0.183
2.227,-0.18
2.228,-0.123
2.228,-0.122
2.228,-0.092
2.228,-0.092
2.228,-0.072
2.229,-0.072
2.229,-0.058
2.229,-0.057
2.229,-0.047
2.23,-0.047
2.23,-0.038
2.23,-0.038
2.231,-0.03
2.231,-0.03
2.231,-0.015
2.231,-0.013
2.232,0.01
2.232,0.01
2.232,0.047
2.232,0.05
2.232,0.112
2.233,0.102
2.233,0.16
2.233,0.132
2.233,-0.045
2.234,-0.028
2.234,0.032
2.234,-0.003
2.235,0.057
2.235,0.057
2.235,0.075
2.235,0.072
2.236,0.03
2.236,0.028
2.236,-0.042
2.236,-0.045
2.236,-0.097
2.237,-0.098
2.237,-0.138
2.237,-0.14
2.237,-0.157
2.238,-0.158
2.238,-0.167
2.238,-0.167
2.239,-0.163
2.239,-0.163
2.239,-0.158
2.239,-0.158
2.24,-0.143
2.24,-0.143
2.24,-0.137
2.24,-0.145
2.24,-0.188
2.241,-0.192
2.241,-0.255
2.241,-0.253
2.241,-0.187
2.242,-0.182
2.242,-0.073
2.242,-0.07
2.243,-0.002
2.243,0.002
2.243,-0.005
2.243,-0.007
2.244,-0.037
2.244,-0.038
2.244,-0.065
2.244,-0.067
2.244,-0.087
2.245,-0.087
2.245,-0.093
2.245,-0.092
2.245,-0.095
2.246,-0.092
2.246,-0.097
2.246,-0.093
2.247,-0.097
2.247,-0.095
2.247,-0.105
2.247,-0.105
2.248,-0.11
2.248,-0.115
2.248,-0.108
2.248,-0.105
2.248,-0.133
2.249,-0.137
2.249,-0.197
2.249,-0.19
2.249,-0.097
2.25,-0.092
2.25,0.008
2.25,0.012
2.251,0.028
2.251,0.027
2.251,0.012
2.251,0.01
2.252,-0.007
2.252,0.1
2.252,-0.007
2.252,-0.02
2.252,-0.02
2.253,-0.025
2.253,-0.025
2.253,-0.022
2.253,-0.025
2.254,-0.02
2.254,-0.022
2.254,-0.013
2.255,-0.013
2.255,-0.008
2.255,-0.01
2.255,-0.005
2.256,-0.007
2.256,-0.005
2.256,-0.007
2.256,-0.013
2.256,-0.013
2.257,-0.018
2.257,-0.017
2.257,-0.02
2.257,-0.018
2.258,-0.022
2.258,-0.02
2.258,-0.025
2.259,-0.023
2.259,-0.028
2.259,-0.027
2.259,-0.022
2.26,-0.022
2.26,-0.018
2.26,-0.02
2.26,-0.022
2.26,-0.025
2.261,-0.022
2.261,-0.027
2.261,-0.037
2.261,-0.038
2.262,-0.057
2.262,-0.057
2.262,-0.065
2.263,-0.067
2.263,-0.062
2.263,-0.062
2.263,-0.052
2.264,-0.05
2.264,-0.045
2.264,-0.045
2.264,-0.037
2.264,-0.037
2.265,-0.033
2.265,-0.033
2.265,-0.03
2.265,-0.03
2.266,-0.023
2.266,-0.023
2.266,-0.02
2.267,-0.02
2.267,-0.027
2.267,-0.025
2.267,-0.022
2.268,-0.022
2.268,-0.018
2.268,-0.018
2.268,-0.013
2.268,-0.013
2.269,-0.01
2.269,-0.01
2.269,-0.015
2.269,-0.013
2.27,-0.017
2.27,-0.015
2.27,-0.02
2.271,-0.018
2.271,-0.022
2.271,-0.022
2.271,-0.017
2.272,-0.018
2.272,-0.015
2.272,-0.017
2.272,-0.02
2.272,-0.018
2.273,-0.027
2.273,-0.028
2.273,-0.035
2.273,-0.035
2.274,-0.04
2.274,-0.04
2.274,-0.035
2.275,-0.037
2.275,-0.032
2.275,-0.033
2.275,-0.03
2.276,-0.028
2.276,-0.027
2.276,-0.027
